x,y,z
3,480,640
3,240,320
3,480,640
3,480,640
3,240,320
3,480,640
3,480,640
3,480,640
3,480,640
3,480,640
3,240,320
3,480,640
3,240,320
3,480,640
3,480,640
3,1872,3952
3,480,640
3,240,320
3,480,640
3,480,640
3,480,640
3,480,640
3,480,640
3,480,640
3,480,640
3,240,320
3,480,640
3,480,640
3,480,640
3,480,640
3,480,640
3,480,640
3,1944,2592
3,240,320
3,1872,3952
3,1872,3952
3,2448,3264
3,240,320
3,480,640
3,480,640
3,240,320
3,480,640
3,480,640
3,240,320
3,240,320
3,480,640
3,1952,4128
3,480,640
3,480,640
3,240,320
3,480,640
3,480,640
3,480,640
3,480,640
3,240,320
3,480,640
3,3120,4160
3,240,320
3,2448,3264
3,480,640
3,240,320
3,240,320
3,480,640
3,3120,4160
3,240,320
3,480,640
3,480,640
3,480,640
3,240,320
3,480,640
3,480,640
3,1944,2592
3,2448,3264
3,240,320
3,240,320
3,480,640
3,480,640
3,480,640
3,240,320
3,480,640
3,480,640
3,480,640
3,240,320
3,240,320
3,480,640
3,480,640
3,480,640
3,1944,2592
3,480,640
3,480,640
3,480,640
3,480,640
3,480,640
3,240,320
3,240,320
3,480,640
3,480,640
3,240,320
3,480,640
3,480,640
3,480,640
3,480,640
3,480,640
3,480,640
3,2448,3264
3,240,320
3,240,320
3,480,640
3,480,640
3,480,640
3,480,640
3,480,640
3,480,640
3,240,320
3,1872,3952
3,480,640
3,480,640
3,480,640
3,240,320
3,240,320
3,480,640
3,240,320
3,240,320
3,2448,3264
3,1872,3952
3,480,640
3,2160,3840
3,480,640
3,2448,3264
3,480,640
3,480,640
3,480,640
3,480,640
3,480,640
3,240,320
3,240,320
3,480,640
3,480,640
3,480,640
3,240,320
3,240,320
3,480,640
3,480,640
3,480,640
3,240,320
3,240,320
3,480,640
3,240,320
3,480,640
3,1872,3952
3,3120,4160
3,240,320
3,240,320
3,480,640
3,480,640
3,480,640
3,2448,3264
3,240,320
3,480,640
3,240,320
3,480,640
3,240,320
3,260,195
3,480,640
3,240,320
3,1872,3952
3,480,640
3,480,640
3,480,640
3,480,640
3,480,640
3,2448,3264
3,480,640
3,480,640
3,480,640
3,480,640
3,480,640
3,2448,3264
3,480,640
3,480,640
3,480,640
3,480,640
3,480,640
3,3120,4160
3,480,640
3,480,640
3,204,153
3,480,640
3,480,640
3,1872,4160
3,480,640
3,480,640
3,480,640
3,480,640
3,153,204
3,1944,2592
3,480,640
3,480,640
3,480,640
3,240,320
3,480,640
3,480,640
3,480,640
3,240,320
3,480,640
3,3120,4160
3,1872,3952
3,240,320
3,240,320
3,480,640
3,192,256
3,480,640
3,480,640
3,3120,4160
3,240,320
3,480,640
3,480,640
3,240,320
3,240,320
3,480,640
3,480,640
3,480,640
3,480,640
3,480,640
3,480,640
3,240,320
3,480,640
3,480,640
3,480,640
3,480,640
3,3120,4160
3,1872,3952
3,480,640
3,240,320
3,153,204
3,240,320
3,480,640
3,1872,3952
3,1944,2592
3,480,640
3,480,640
3,480,640
3,240,320
3,480,640
3,480,640
3,480,640
3,480,640
3,1920,2560
3,240,320
3,2448,3264
3,1872,3952
3,480,640
3,240,320
3,480,640
3,480,640
3,240,320
3,1872,3952
3,480,640
3,480,640
3,240,320
3,480,640
3,480,640
3,480,640
3,204,153
3,480,640
3,480,640
3,3456,4608
3,480,640
3,480,640
3,480,640
3,2448,3264
3,240,320
3,480,640
3,240,320
3,480,640
3,480,640
3,240,320
3,260,195
3,480,640
3,1872,3952
3,240,320
3,480,640
3,153,204
3,480,640
3,480,640
3,480,640
3,480,640
3,480,640
3,240,320
3,240,320
3,480,640
3,2448,3264
3,480,640
3,480,640
3,2448,3264
3,2448,3264
3,480,640
3,1872,3952
3,480,640
3,1872,3952
3,480,640
3,3120,4160
3,480,640
3,480,640
3,480,640
3,240,320
3,480,640
3,480,640
3,480,640
3,480,640
3,480,640
3,480,640
3,480,640
3,480,640
3,480,640
3,480,640
3,480,640
3,240,320
3,240,320
3,480,640
3,480,640
3,3120,4160
3,2448,3264
3,240,320
3,240,320
3,480,640
3,480,640
3,480,640
3,1944,2592
3,480,640
3,240,320
3,480,640
3,480,640
3,480,640
3,480,640
3,480,640
3,240,320
3,480,640
3,240,320
3,1944,2592
3,2448,3264
3,240,320
3,480,640
3,240,320
3,480,640
3,480,640
3,480,640
3,480,640
3,480,640
3,480,640
3,240,320
3,480,640
3,480,640
3,240,320
3,2448,3264
3,1872,3952
3,480,640
3,1872,3952
3,240,320
3,480,640
3,1944,2592
3,480,640
3,1872,3952
3,240,320
3,480,640
3,240,320
3,480,640
3,480,640
3,480,640
3,480,640
3,240,320
3,480,640
3,240,320
3,1952,4128
3,480,640
3,240,320
3,480,640
3,3120,4160
3,480,640
3,480,640
3,240,320
3,240,320
3,480,640
3,240,320
3,480,640
3,480,640
3,240,320
3,480,640
3,1872,3952
3,480,640
3,240,320
3,480,640
3,480,640
3,480,640
3,480,640
3,480,640
3,240,320
3,1872,3952
3,480,640
3,2448,3264
3,1872,3952
3,480,640
3,2976,3968
3,240,320
3,480,640
3,480,640
3,480,640
3,480,640
3,240,320
3,240,320
3,240,320
3,480,640
3,480,640
3,2448,3264
3,1872,3952
3,480,640
3,480,640
3,240,320
3,480,640
3,480,640
3,480,640
3,240,320
3,240,320
3,480,640
3,480,640
3,1952,4128
3,1800,4000
3,1872,3952
3,240,320
3,1944,2592
3,480,640
3,240,320
3,480,640
3,1872,3952
3,2448,3264
3,480,640
3,480,640
3,2976,3968
3,3120,4160
3,240,320
3,480,640
3,480,640
3,480,640
3,480,640
3,480,640
3,480,640
3,240,320
3,480,640
3,480,640
3,240,320
3,480,640
3,480,640
3,3120,4160
3,240,320
3,240,320
3,480,640
3,3120,4160
3,240,320
3,2448,3264
3,480,640
3,1872,3952
3,480,640
3,480,640
3,480,640
3,240,320
3,480,640
3,480,640
3,480,640
3,480,640
3,480,640
3,480,640
3,240,320
3,480,640
3,240,320
3,2448,3264
3,480,640
3,240,320
3,480,640
3,480,640
3,480,640
3,480,640
3,480,640
3,240,320
3,480,640
3,480,640
3,480,640
3,2160,3840
3,480,640
3,480,640
3,3456,4608
3,480,640
3,480,640
3,240,320
3,480,640
3,480,640
3,480,640
3,480,640
3,480,640
3,480,640
3,1872,3952
3,240,320
3,480,640
3,480,640
3,480,640
3,480,640
3,480,640
3,1952,4128
3,1872,3952
3,480,640
3,1944,2592
3,480,640
3,2448,3264
3,480,640
3,480,640
3,240,320
3,1944,2592
3,240,320
3,480,640
3,240,320
3,480,640
3,240,320
3,2448,3264
3,480,640
3,240,320
3,480,640
3,2448,3264
3,480,640
3,480,640
3,480,640
3,480,640
3,480,640
3,480,640
3,480,640
3,240,320
3,480,640
3,240,320
3,1872,3952
3,480,640
3,480,640
3,480,640
3,1872,3952
3,1872,3952
3,480,640
3,480,640
3,240,320
3,480,640
3,480,640
3,240,320
3,480,640
3,480,640
3,240,320
3,1944,2592
3,240,320
3,480,640
3,480,640
3,480,640
3,480,640
3,480,640
3,240,320
3,480,640
3,480,640
3,480,640
3,480,640
3,240,320
3,240,320
3,240,320
3,240,320
3,480,640
3,1952,4128
3,480,640
3,480,640
3,480,640
3,480,640
3,1944,2592
3,1872,3952
3,480,640
3,480,640
3,480,640
3,480,640
3,153,204
3,480,640
3,1920,2560
3,480,640
3,240,320
3,240,320
3,480,640
3,480,640
3,480,640
3,480,640
3,480,640
3,480,640
3,480,640
3,480,640
3,480,640
3,240,320
3,480,640
3,2448,3264
3,144,256
3,480,640
3,480,640
3,480,640
3,240,320
3,480,640
3,240,320
3,480,640
3,240,320
3,480,640
3,1872,3952
3,1872,3952
3,480,640
3,240,320
3,480,640
3,480,640
3,480,640
3,480,640
3,204,153
3,480,640
3,240,320
3,1944,2592
3,480,640
3,480,640
3,480,640
3,240,320
3,480,640
3,480,640
3,480,640
3,480,640
3,480,640
3,480,640
3,480,640
3,480,640
3,240,320
3,480,640
3,480,640
3,240,320
3,480,640
3,480,640
3,480,640
3,240,320
3,240,320
3,240,320
3,2448,3264
3,480,640
3,480,640
3,480,640
3,240,320
3,480,640
3,480,640
3,480,640
3,480,640
3,240,320
3,240,320
3,2448,3264
3,480,640
3,480,640
3,480,640
3,480,640
3,240,320
3,240,320
3,480,640
3,240,320
3,320,240
3,480,640
3,3120,4160
3,1932,2576
3,240,320
3,1872,3952
3,240,320
3,480,640
3,480,640
3,240,320
3,480,640
3,480,640
3,480,640
3,240,320
3,240,320
3,240,320
3,480,640
3,480,640
3,480,640
3,1872,3952
3,240,320
3,480,640
3,480,640
3,480,640
3,480,640
3,240,320
3,480,640
3,1872,3952
3,204,153
3,3120,4160
3,1944,2592
3,480,640
3,480,640
3,480,640
3,240,320
3,480,640
3,480,640
3,480,640
3,480,640
3,240,320
3,2448,3264
3,3120,4160
3,480,640
3,3120,4160
3,480,640
3,3456,3456
3,480,640
3,480,640
3,480,640
3,480,640
3,1872,3952
3,240,320
3,480,640
3,240,320
3,480,640
3,480,640
3,480,640
3,3120,4160
3,240,320
3,480,640
3,480,640
3,480,640
3,480,640
3,480,640
3,480,640
3,480,640
3,480,640
3,480,640
3,2448,3264
3,240,320
3,480,640
3,480,640
3,480,640
3,480,640
3,480,640
3,240,320
3,480,640
3,480,640
3,240,320
3,240,320
3,480,640
3,480,640
3,480,640
3,480,640
3,240,320
3,240,320
3,480,640
3,480,640
3,480,640
3,1872,3952
3,153,204
3,480,640
3,480,640
3,480,640
3,2448,3264
3,480,640
3,480,640
3,480,640
3,1872,3952
3,480,640
3,480,640
3,240,320
3,480,640
3,480,640
3,480,640
3,1872,3952
3,480,640
3,204,153
3,240,320
3,480,640
3,480,640
3,480,640
3,480,640
3,480,640
3,240,320
3,153,204
3,480,640
3,480,640
3,240,320
3,480,640
3,1872,3952
3,480,640
3,480,640
3,480,640
3,1944,2592
3,240,320
3,1872,3952
3,240,320
3,1872,3952
3,240,320
3,240,320
3,240,320
3,240,320
3,1944,2592
3,240,320
3,480,640
3,240,320
3,480,640
3,480,640
3,240,320
3,480,640
3,480,640
3,240,320
3,240,320
3,2448,3264
3,204,153
3,480,640
3,240,320
3,480,640
3,240,320
3,2448,3264
3,240,320
3,480,640
3,480,640
3,480,640
3,1920,2560
3,480,640
3,480,640
3,2448,3264
3,480,640
3,2448,3264
3,480,640
3,240,320
3,480,640
3,240,320
3,480,640
3,480,640
3,240,320
3,1872,3952
3,480,640
3,480,640
3,3120,4160
3,480,640
3,480,640
3,240,320
3,480,640
3,153,204
3,480,640
3,480,640
3,480,640
3,480,640
3,480,640
3,480,640
3,480,640
3,480,640
3,480,640
3,480,640
3,480,640
3,480,640
3,240,320
3,480,640
3,480,640
3,1872,3952
3,3456,4608
3,480,640
3,240,320
3,240,320
3,480,640
3,480,640
3,240,320
3,480,640
3,480,640
3,480,640
3,240,320
3,480,640
3,480,640
3,240,320
3,480,640
3,2160,3840
3,240,320
3,1944,2592
3,2448,3264
3,480,640
3,480,640
3,480,640
3,480,640
3,480,640
3,240,320
3,480,640
3,480,640
3,1944,2592
3,240,320
3,480,640
3,480,640
3,480,640
3,3120,4160
3,1952,4128
3,480,640
3,480,640
3,204,153
3,480,640
3,480,640
3,480,640
3,480,640
3,480,640
3,480,640
3,240,320
3,240,320
3,480,640
3,480,640
3,480,640
3,480,640
3,480,640
3,240,320
3,240,320
3,204,153
3,480,640
3,480,640
3,240,320
3,480,640
3,240,320
3,240,320
3,2448,3264
3,2160,3840
3,480,640
3,480,640
3,480,640
3,480,640
3,480,640
3,480,640
3,480,640
3,480,640
3,480,640
3,480,640
3,3120,4160
3,480,640
3,240,320
3,480,640
3,1872,3952
3,240,320
3,240,320
3,480,640
3,480,640
3,480,640
3,480,640
3,480,640
3,480,640
3,480,640
3,240,320
3,480,640
3,480,640
3,1872,3952
3,480,640
3,480,640
3,204,153
3,480,640
3,480,640
3,240,320
3,480,640
3,480,640
3,480,640
3,3120,4160
3,480,640
3,240,320
3,240,320
3,480,640
3,480,640
3,480,640
3,480,640
3,1872,3952
3,480,640
3,204,153
3,480,640
3,480,640
3,480,640
3,480,640
3,480,640
3,240,320
3,480,640
3,480,640
3,480,640
3,3456,4608
3,240,320
3,480,640
3,240,320
3,240,320
3,480,640
3,480,640
3,1872,3952
3,480,640
3,240,320
3,240,320
3,240,320
3,480,640
3,480,640
3,480,640
3,240,320
3,240,320
3,1872,3952
3,1872,3952
3,240,320
3,2448,3264
3,240,320
3,2448,3264
3,1872,4160
3,2448,3264
3,240,320
3,480,640
3,240,320
3,480,640
3,240,320
3,480,640
3,480,640
3,480,640
3,480,640
3,1932,2576
3,240,320
3,1944,2592
3,240,320
3,240,320
3,480,640
3,240,320
3,1872,3952
3,480,640
3,480,640
3,480,640
3,480,640
3,240,320
3,480,640
3,480,640
3,480,640
3,480,640
3,480,640
3,480,640
3,480,640
3,480,640
3,1872,3952
3,480,640
3,240,320
3,480,640
3,480,640
3,480,640
3,480,640
3,480,640
3,480,640
3,240,320
3,480,640
3,480,640
3,480,640
3,480,640
3,1872,3952
3,480,640
3,480,640
3,480,640
3,480,640
3,480,640
3,1872,3952
3,240,320
3,480,640
3,240,320
3,240,320
3,240,320
3,480,640
3,480,640
3,480,640
3,240,320
3,1944,2592
3,480,640
3,204,153
3,240,320
3,480,640
3,480,640
3,480,640
3,240,320
3,240,320
3,480,640
3,480,640
3,3120,4160
3,480,640
3,480,640
3,240,320
3,2160,3840
3,240,320
3,480,640
3,480,640
3,240,320
3,480,640
3,480,640
3,480,640
3,2160,3840
3,240,320
3,2160,3840
3,480,640
3,3456,3456
3,2160,3840
3,480,640
3,2448,3264
3,204,153
3,480,640
3,240,320
3,1872,3952
3,3000,4000
3,480,640
3,3120,4160
3,1872,3952
3,480,640
3,240,320
3,480,640
3,480,640
3,480,640
3,480,640
3,480,640
3,480,640
3,240,320
3,1872,3952
3,480,640
3,240,320
3,480,640
3,480,640
3,480,640
3,480,640
3,480,640
3,480,640
3,480,640
3,480,640
3,240,320
3,480,640
3,480,640
3,240,320
3,480,640
3,480,640
3,480,640
3,240,320
3,480,640
3,480,640
3,240,320
3,194,194
3,480,640
3,480,640
3,240,320
3,2448,3264
3,3456,3456
3,480,640
3,480,640
3,2448,3264
3,2448,3264
3,2448,3264
3,480,640
3,144,256
3,480,640
3,480,640
3,2448,3264
3,3456,4608
3,480,640
3,240,320
3,480,640
3,480,640
3,240,320
3,240,320
3,2448,3264
3,480,640
3,1872,3952
3,240,320
3,480,640
3,480,640
3,480,640
3,480,640
3,240,320
3,204,153
3,480,640
3,1872,3952
3,480,640
3,480,640
3,480,640
3,480,640
3,480,640
3,3456,3456
3,480,640
3,480,640
3,1872,3952
3,1872,3952
3,2448,3264
3,480,640
3,480,640
3,240,320
3,2160,3840
3,480,640
3,480,640
3,240,320
3,480,640
3,480,640
3,2448,3264
3,240,320
3,480,640
3,480,640
3,480,640
3,240,320
3,144,256
3,480,640
3,480,640
3,480,640
3,480,640
3,480,640
3,1872,3952
3,480,640
3,1872,3952
3,240,320
3,240,320
3,480,640
3,480,640
3,480,640
3,480,640
3,240,320
3,240,320
3,1944,2592
3,240,320
3,480,640
3,2448,3264
3,240,320
3,480,640
3,480,640
3,480,640
3,480,640
3,480,640
3,240,320
3,480,640
3,480,640
3,480,640
3,480,640
3,480,640
3,480,640
3,480,640
3,480,640
3,2448,3264
3,3120,4160
3,480,640
3,480,640
3,240,320
3,480,640
3,240,320
3,3120,4160
3,480,640
3,480,640
3,480,640
3,2448,3264
3,240,320
3,1872,3952
3,240,320
3,480,640
3,240,320
3,480,640
3,480,640
3,240,320
3,240,320
3,240,320
3,480,640
3,480,640
3,480,640
3,240,320
3,480,640
3,2448,3264
3,240,320
3,240,320
3,480,640
3,240,320
3,480,640
3,480,640
3,1872,3952
3,480,640
3,480,640
3,240,320
3,480,640
3,480,640
3,240,320
3,480,640
3,1872,3952
3,2448,3264
3,480,640
3,3120,4160
3,480,640
3,480,640
3,2448,3264
3,480,640
3,240,320
3,240,320
3,480,640
3,480,640
3,480,640
3,1944,2592
3,3120,4160
3,480,640
3,240,320
3,480,640
3,480,640
3,480,640
3,480,640
3,1944,2592
3,480,640
3,204,153
3,240,320
3,480,640
3,480,640
3,240,320
3,480,640
3,480,640
3,480,640
3,1872,3952
3,1932,2576
3,3120,4160
3,480,640
3,480,640
3,2448,3264
3,480,640
3,480,640
3,480,640
3,480,640
3,480,640
3,480,640
3,2448,3264
3,194,194
3,240,320
3,480,640
3,480,640
3,2448,3264
3,480,640
3,240,320
3,480,640
3,480,640
3,480,640
3,480,640
3,480,640
3,480,640
3,240,320
3,480,640
3,480,640
3,480,640
3,240,320
3,480,640
3,480,640
3,480,640
3,480,640
3,480,640
3,1932,2576
3,2448,3264
3,480,640
3,240,320
3,480,640
3,240,320
3,480,640
3,480,640
3,240,320
3,240,320
3,240,320
3,2976,3968
3,480,640
3,480,640
3,240,320
3,480,640
3,240,320
3,240,320
3,240,320
3,3120,4160
3,480,640
3,240,320
3,240,320
3,240,320
3,480,640
3,480,640
3,480,640
3,240,320
3,480,640
3,240,320
3,480,640
3,480,640
3,480,640
3,480,640
3,240,320
3,480,640
3,480,640
3,480,640
3,240,320
3,480,640
3,480,640
3,480,640
3,480,640
3,240,320
3,480,640
3,3456,3456
3,480,640
3,480,640
3,240,320
3,240,320
3,480,640
3,480,640
3,480,640
3,240,320
3,240,320
3,240,320
3,480,640
3,480,640
3,240,320
3,480,640
3,240,320
3,240,320
3,480,640
3,480,640
3,240,320
3,1920,2560
3,1952,4128
3,1952,4128
3,480,640
3,240,320
3,480,640
3,240,320
3,480,640
3,480,640
3,240,320
3,480,640
3,240,320
3,480,640
3,1872,3952
3,480,640
3,480,640
3,240,320
3,240,320
3,240,320
3,121,162
3,2448,3264
3,480,640
3,480,640
3,240,320
3,480,640
3,144,256
3,480,640
3,480,640
3,480,640
3,2448,3264
3,480,640
3,240,320
3,240,320
3,240,320
3,1944,2592
3,3120,4160
3,1872,4160
3,480,640
3,480,640
3,480,640
3,480,640
3,240,320
3,3456,4608
3,240,320
3,240,320
3,480,640
3,480,640
3,240,320
3,240,320
3,240,320
3,480,640
3,2448,3264
3,480,640
3,240,320
3,480,640
3,480,640
3,480,640
3,480,640
3,240,320
3,3120,4160
3,480,640
3,240,320
3,480,640
3,480,640
3,240,320
3,480,640
3,2448,3264
3,240,320
3,240,320
3,480,640
3,240,320
3,240,320
3,480,640
3,480,640
3,240,320
3,480,640
3,480,640
3,480,640
3,1952,4128
3,240,320
3,240,320
3,480,640
3,240,320
3,480,640
3,240,320
3,480,640
3,240,320
3,240,320
3,240,320
3,480,640
3,480,640
3,480,640
3,240,320
3,240,320
3,480,640
3,480,640
3,1872,3952
3,480,640
3,480,640
3,240,320
3,480,640
3,240,320
3,480,640
3,3120,4160
3,480,640
3,480,640
3,480,640
3,2448,3264
3,480,640
3,480,640
3,1872,3952
3,480,640
3,240,320
3,1872,3952
3,480,640
3,240,320
3,240,320
3,480,640
3,240,320
3,480,640
3,3456,4608
3,480,640
3,480,640
3,480,640
3,240,320
3,2976,3968
3,2448,3264
3,240,320
3,480,640
3,480,640
3,240,320
3,480,640
3,240,320
3,1872,3952
3,480,640
3,480,640
3,3120,4160
3,1944,2592
3,1932,2576
3,480,640
3,480,640
3,480,640
3,480,640
3,480,640
3,2448,3264
3,240,320
3,480,640
3,240,320
3,480,640
3,480,640
3,240,320
3,480,640
3,1872,3952
3,1800,4000
3,480,640
3,480,640
3,480,640
3,480,640
3,240,320
3,480,640
3,480,640
3,480,640
3,240,320
3,480,640
3,240,320
3,480,640
3,480,640
3,480,640
3,480,640
3,3120,4160
3,480,640
3,2448,3264
3,480,640
3,240,320
3,480,640
3,480,640
3,3120,4160
3,480,640
3,480,640
3,1932,2576
3,480,640
3,480,640
3,240,320
3,1944,2592
3,480,640
3,480,640
3,1872,3952
3,240,320
3,240,320
3,480,640
3,480,640
3,480,640
3,480,640
3,240,320
3,2448,3264
3,1872,3952
3,240,320
3,160,120
3,480,640
3,480,640
3,480,640
3,480,640
3,240,320
3,480,640
3,240,320
3,2448,3264
3,480,640
3,480,640
3,480,640
3,480,640
3,240,320
3,480,640
3,1944,2592
3,480,640
3,480,640
3,1872,3952
3,480,640
3,480,640
3,480,640
3,240,320
3,3120,4160
3,480,640
3,480,640
3,240,320
3,480,640
3,480,640
3,480,640
3,240,320
3,1920,2560
3,480,640
3,480,640
3,480,640
3,2448,3264
3,480,640
3,480,640
3,480,640
3,480,640
3,2448,3264
3,480,640
3,240,320
3,480,640
3,480,640
3,240,320
3,480,640
3,480,640
3,480,640
3,240,320
3,240,320
3,240,320
3,480,640
3,240,320
3,480,640
3,3120,4160
3,480,640
3,480,640
3,480,640
3,240,320
3,240,320
3,153,204
3,240,320
3,240,320
3,480,640
3,480,640
3,1944,2592
3,480,640
3,240,320
3,480,640
3,480,640
3,240,320
3,3120,4160
3,480,640
3,240,320
3,240,320
3,480,640
3,480,640
3,480,640
3,480,640
3,240,320
3,480,640
3,1944,2592
3,480,640
3,480,640
3,1872,3952
3,480,640
3,1836,3264
3,480,640
3,240,320
3,480,640
3,480,640
3,240,320
3,480,640
3,480,640
3,480,640
3,204,153
3,480,640
3,480,640
3,240,320
3,240,320
3,480,640
3,240,320
3,1872,3952
3,2448,3264
3,240,320
3,240,320
3,480,640
3,480,640
3,240,320
3,480,640
3,480,640
3,1932,2576
3,480,640
3,240,320
3,240,320
3,480,640
3,480,640
3,240,320
3,480,640
3,480,640
3,204,153
3,480,640
3,480,640
3,480,640
3,480,640
3,2448,3264
3,480,640
3,480,640
3,480,640
3,480,640
3,1872,3952
3,480,640
3,480,640
3,240,320
3,240,320
3,480,640
3,480,640
3,480,640
3,480,640
3,480,640
3,480,640
3,480,640
3,480,640
3,240,320
3,240,320
3,480,640
3,240,320
3,240,320
3,240,320
3,240,320
3,480,640
3,2448,3264
3,480,640
3,480,640
3,480,640
3,480,640
3,480,640
3,240,320
3,480,640
3,240,320
3,480,640
3,240,320
3,480,640
3,480,640
3,480,640
3,240,320
3,480,640
3,480,640
3,480,640
3,480,640
3,480,640
3,1944,2592
3,480,640
3,480,640
3,480,640
3,480,640
3,240,320
3,480,640
3,480,640
3,480,640
3,480,640
3,240,320
3,480,640
3,1872,3952
3,480,640
3,2448,3264
3,480,640
3,240,320
3,480,640
3,480,640
3,480,640
3,480,640
3,2448,3264
3,240,320
3,480,640
3,480,640
3,2448,3264
3,480,640
3,3120,4160
3,240,320
3,480,640
3,480,640
3,240,320
3,480,640
3,240,320
3,480,640
3,480,640
3,1872,3952
3,240,320
3,480,640
3,480,640
3,480,640
3,480,640
3,240,320
3,2448,3264
3,240,320
3,480,640
3,1952,4128
3,480,640
3,480,640
3,240,320
3,480,640
3,240,320
3,204,153
3,240,320
3,480,640
3,1872,3952
3,480,640
3,480,640
3,480,640
3,240,320
3,240,320
3,240,320
3,480,640
3,480,640
3,1932,2576
3,480,640
3,240,320
3,480,640
3,480,640
3,480,640
3,480,640
3,480,640
3,2448,3264
3,1872,3952
3,480,640
3,240,320
3,240,320
3,480,640
3,480,640
3,240,320
3,240,320
3,480,640
3,480,640
3,480,640
3,480,640
3,1872,3952
3,2976,3968
3,240,320
3,480,640
3,240,320
3,240,320
3,480,640
3,480,640
3,480,640
3,480,640
3,480,640
3,240,320
3,480,640
3,480,640
3,2448,3264
3,240,320
3,480,640
3,240,320
3,240,320
3,260,117
3,480,640
3,480,640
3,480,640
3,480,640
3,2448,3264
3,240,320
3,480,640
3,480,640
3,240,320
3,480,640
3,240,320
3,480,640
3,480,640
3,1944,2592
3,480,640
3,480,640
3,480,640
3,480,640
3,1944,2592
3,2448,3264
3,480,640
3,480,640
3,480,640
3,3120,4160
3,204,153
3,480,640
3,1944,2592
3,240,320
3,240,320
3,2976,3968
3,480,640
3,2448,3264
3,480,640
3,480,640
3,1944,2592
3,480,640
3,480,640
3,480,640
3,480,640
3,480,640
3,480,640
3,480,640
3,480,640
3,480,640
3,480,640
3,240,320
3,480,640
3,480,640
3,2160,3840
3,1872,3952
3,240,320
3,480,640
3,480,640
3,480,640
3,480,640
3,240,320
3,480,640
3,480,640
3,240,320
3,240,320
3,240,320
3,480,640
3,480,640
3,240,320
3,2160,3840
3,240,320
3,480,640
3,240,320
3,480,640
3,480,640
3,2448,3264
3,240,320
3,480,640
3,480,640
3,480,640
3,480,640
3,480,640
3,480,640
3,2448,3264
3,480,640
3,480,640
3,2448,3264
3,240,320
3,480,640
3,3120,4160
3,1872,3952
3,480,640
3,480,640
3,480,640
3,480,640
3,3456,3456
3,480,640
3,240,320
3,240,320
3,480,640
3,480,640
3,240,320
3,480,640
3,240,320
3,480,640
3,2448,3264
3,480,640
3,480,640
3,2448,3264
3,480,640
3,480,640
3,480,640
3,240,320
3,480,640
3,1872,3952
3,3120,4160
3,480,640
3,1944,2592
3,480,640
3,480,640
3,480,640
3,480,640
3,240,320
3,480,640
3,240,320
3,480,640
3,480,640
3,153,204
3,480,640
3,480,640
3,144,256
3,480,640
3,240,320
3,480,640
3,480,640
3,240,320
3,240,320
3,2448,3264
3,240,320
3,240,320
3,480,640
3,480,640
3,480,640
3,2448,3264
3,240,320
3,480,640
3,480,640
3,1932,2576
3,480,640
3,2448,3264
3,204,153
3,480,640
3,240,320
3,240,320
3,480,640
3,480,640
3,480,640
3,480,640
3,480,640
3,480,640
3,480,640
3,240,320
3,480,640
3,480,640
3,1944,2592
3,480,640
3,480,640
3,240,320
3,240,320
3,480,640
3,240,320
3,240,320
3,204,153
3,3120,4160
3,480,640
3,480,640
3,480,640
3,240,320
3,3120,4160
3,2448,3264
3,240,320
3,2448,3264
3,480,640
3,480,640
3,480,640
3,480,640
3,480,640
3,480,640
3,240,320
3,3120,4160
3,480,640
3,240,320
3,480,640
3,480,640
3,1872,3952
3,240,320
3,480,640
3,480,640
3,2448,3264
3,240,320
3,480,640
3,1872,4160
3,240,320
3,240,320
3,240,320
3,2448,3264
3,480,640
3,480,640
3,240,320
3,480,640
3,480,640
3,240,320
3,3456,3456
3,480,640
3,480,640
3,480,640
3,480,640
3,240,320
3,240,320
3,480,640
3,3120,4160
3,240,320
3,240,320
3,1872,3952
3,480,640
3,480,640
3,480,640
3,1872,4160
3,1872,3952
3,240,320
3,480,640
3,480,640
3,480,640
3,480,640
3,1932,2576
3,480,640
3,480,640
3,480,640
3,1872,3952
3,480,640
3,480,640
3,480,640
3,480,640
3,2448,3264
3,480,640
3,480,640
3,240,320
3,480,640
3,240,320
3,480,640
3,480,640
3,480,640
3,480,640
3,480,640
3,240,320
3,480,640
3,480,640
3,240,320
3,480,640
3,480,640
3,480,640
3,480,640
3,240,320
3,1944,2592
3,240,320
3,480,640
3,480,640
3,2448,3264
3,2976,3968
3,1944,2592
3,480,640
3,480,640
3,240,320
3,480,640
3,240,320
3,480,640
3,240,320
3,1872,3952
3,480,640
3,480,640
3,1872,3952
3,480,640
3,480,640
3,153,204
3,480,640
3,480,640
3,480,640
3,240,320
3,480,640
3,480,640
3,480,640
3,240,320
3,3120,4160
3,480,640
3,480,640
3,480,640
3,480,640
3,480,640
3,240,320
3,240,320
3,480,640
3,480,640
3,480,640
3,480,640
3,480,640
3,480,640
3,1932,2576
3,480,640
3,480,640
3,480,640
3,480,640
3,480,640
3,480,640
3,240,320
3,480,640
3,480,640
3,240,320
3,240,320
3,480,640
3,240,320
3,3120,4160
3,480,640
3,480,640
3,240,320
3,2160,3840
3,1872,3952
3,480,640
3,480,640
3,2448,3264
3,2448,3264
3,480,640
3,3120,4160
3,240,320
3,480,640
3,480,640
3,480,640
3,480,640
3,3456,4608
3,240,320
3,480,640
3,480,640
3,480,640
3,480,640
3,204,153
3,480,640
3,480,640
3,240,320
3,480,640
3,240,320
3,240,320
3,480,640
3,1944,2592
3,240,320
3,240,320
3,2448,3264
3,1944,2592
3,2448,3264
3,240,320
3,480,640
3,480,640
3,480,640
3,480,640
3,480,640
3,480,640
3,480,640
3,480,640
3,240,320
3,480,640
3,480,640
3,480,640
3,240,320
3,480,640
3,480,640
3,480,640
3,240,320
3,480,640
3,480,640
3,480,640
3,2448,3264
3,480,640
3,480,640
3,480,640
3,240,320
3,480,640
3,3456,3456
3,480,640
3,3120,4160
3,480,640
3,480,640
3,480,640
3,480,640
3,480,640
3,480,640
3,240,320
3,480,640
3,480,640
3,240,320
3,480,640
3,480,640
3,1872,3952
3,204,153
3,240,320
3,1872,3952
3,240,320
3,480,640
3,480,640
3,480,640
3,480,640
3,240,320
3,480,640
3,240,320
3,480,640
3,240,320
3,240,320
3,480,640
3,240,320
3,480,640
3,240,320
3,480,640
3,480,640
3,194,194
3,240,320
3,240,320
3,480,640
3,480,640
3,480,640
3,2448,3264
3,480,640
3,480,640
3,480,640
3,480,640
3,480,640
3,480,640
3,480,640
3,240,320
3,240,320
3,240,320
3,1872,3952
3,480,640
3,480,640
3,240,320
3,480,640
3,240,320
3,480,640
3,480,640
3,480,640
3,1872,3952
3,480,640
3,144,256
3,240,320
3,240,320
3,480,640
3,480,640
3,240,320
3,480,640
3,240,320
3,480,640
3,480,640
3,2448,3264
3,3120,4160
3,480,640
3,240,320
3,480,640
3,480,640
3,240,320
3,480,640
3,480,640
3,240,320
3,480,640
3,480,640
3,480,640
3,480,640
3,480,640
3,1872,3952
3,240,320
3,480,640
3,480,640
3,480,640
3,480,640
3,2160,3840
3,480,640
3,480,640
3,480,640
3,240,320
3,480,640
3,480,640
3,480,640
3,240,320
3,480,640
3,480,640
3,480,640
3,480,640
3,240,320
3,480,640
3,1944,2592
3,240,320
3,2448,3264
3,480,640
3,480,640
3,2448,3264
3,480,640
3,480,640
3,1872,3952
3,480,640
3,480,640
3,480,640
3,480,640
3,240,320
3,240,320
3,480,640
3,480,640
3,480,640
3,1872,3952
3,480,640
3,240,320
3,204,153
3,480,640
3,480,640
3,480,640
3,1872,3952
3,480,640
3,240,320
3,480,640
3,480,640
3,2448,3264
3,2448,3264
3,3120,4160
3,480,640
3,3120,4160
3,480,640
3,480,640
3,480,640
3,1872,3952
3,240,320
3,2448,3264
3,1872,3952
3,480,640
3,480,640
3,2976,3968
3,240,320
3,240,320
3,480,640
3,480,640
3,2448,3264
3,240,320
3,480,640
3,240,320
3,240,320
3,240,320
3,480,640
3,480,640
3,480,640
3,480,640
3,3120,4160
3,480,640
3,480,640
3,240,320
3,3120,4160
3,240,320
3,480,640
3,240,320
3,240,320
3,480,640
3,240,320
3,480,640
3,240,320
3,480,640
3,240,320
3,240,320
3,1952,4128
3,480,640
3,240,320
3,2448,3264
3,240,320
3,480,640
3,480,640
3,480,640
3,240,320
3,480,640
3,480,640
3,480,640
3,480,640
3,480,640
3,480,640
3,240,320
3,480,640
3,240,320
3,240,320
3,480,640
3,480,640
3,480,640
3,240,320
3,480,640
3,480,640
3,480,640
3,2448,3264
3,480,640
3,480,640
3,480,640
3,480,640
3,480,640
3,2160,3840
3,480,640
3,480,640
3,480,640
3,480,640
3,480,640
3,1872,3952
3,480,640
3,480,640
3,240,320
3,240,320
3,480,640
3,240,320
3,480,640
3,480,640
3,240,320
3,480,640
3,240,320
3,2160,3840
3,1872,3952
3,480,640
3,480,640
3,480,640
3,480,640
3,480,640
3,480,640
3,480,640
3,480,640
3,240,320
3,480,640
3,480,640
3,480,640
3,204,153
3,480,640
3,480,640
3,480,640
3,480,640
3,480,640
3,480,640
3,3120,4160
3,480,640
3,480,640
3,240,320
3,480,640
3,480,640
3,480,640
3,480,640
3,480,640
3,240,320
3,480,640
3,480,640
3,480,640
3,240,320
3,480,640
3,480,640
3,1872,3952
3,480,640
3,480,640
3,480,640
3,480,640
3,480,640
3,480,640
3,480,640
3,480,640
3,480,640
3,480,640
3,480,640
3,2448,3264
3,3120,4160
3,480,640
3,240,320
3,480,640
3,240,320
3,480,640
3,480,640
3,480,640
3,240,320
3,1872,3952
3,240,320
3,480,640
3,480,640
3,480,640
3,1944,2592
3,240,320
3,480,640
3,480,640
3,240,320
3,480,640
3,480,640
3,480,640
3,240,320
3,240,320
3,480,640
3,480,640
3,480,640
3,240,320
3,480,640
3,480,640
3,240,320
3,480,640
3,240,320
3,480,640
3,1872,3952
3,480,640
3,480,640
3,480,640
3,240,320
3,480,640
3,240,320
3,480,640
3,480,640
3,240,320
3,480,640
3,1872,3952
3,240,320
3,1872,3952
3,1944,2592
3,204,153
3,480,640
3,480,640
3,480,640
3,240,320
3,480,640
3,480,640
3,240,320
3,480,640
3,2448,3264
3,480,640
3,2448,3264
3,480,640
3,480,640
3,240,320
3,240,320
3,480,640
3,480,640
3,480,640
3,1952,4128
3,480,640
3,480,640
3,3120,4160
3,480,640
3,480,640
3,480,640
3,240,320
3,240,320
3,240,320
3,240,320
3,480,640
3,480,640
3,480,640
3,480,640
3,240,320
3,480,640
3,240,320
3,480,640
3,240,320
3,480,640
3,240,320
3,2448,3264
3,240,320
3,204,153
3,240,320
3,480,640
3,2448,3264
3,3120,4160
3,1872,4160
3,480,640
3,480,640
3,480,640
3,1872,3952
3,480,640
3,480,640
3,480,640
3,240,320
3,240,320
3,480,640
3,480,640
3,480,640
3,480,640
3,1872,3952
3,2448,3264
3,2448,3264
3,1872,3952
3,480,640
3,480,640
3,480,640
3,480,640
3,480,640
3,480,640
3,480,640
3,240,320
3,480,640
3,480,640
3,2160,3840
3,480,640
3,480,640
3,240,320
3,480,640
3,480,640
3,480,640
3,480,640
3,240,320
3,2160,3840
3,2976,3968
3,480,640
3,480,640
3,480,640
3,240,320
3,240,320
3,480,640
3,480,640
3,480,640
3,240,320
3,480,640
3,2448,3264
3,480,640
3,480,640
3,1944,2592
3,480,640
3,2448,3264
3,240,320
3,480,640
3,480,640
3,480,640
3,3456,4608
3,3120,4160
3,240,320
3,2448,3264
3,240,320
3,1872,3952
3,480,640
3,480,640
3,480,640
3,240,320
3,240,320
3,240,320
3,240,320
3,240,320
3,480,640
3,240,320
3,1872,3952
3,1944,2592
3,480,640
3,480,640
3,204,153
3,480,640
3,480,640
3,480,640
3,1932,2576
3,480,640
3,480,640
3,480,640
3,480,640
3,480,640
3,1872,3952
3,480,640
3,480,640
3,480,640
3,240,320
3,480,640
3,1872,3952
3,480,640
3,480,640
3,480,640
3,480,640
3,240,320
3,2448,3264
3,480,640
3,1952,4128
3,2160,3840
3,2448,3264
3,480,640
3,240,320
3,240,320
3,3120,4160
3,480,640
3,480,640
3,3120,4160
3,1872,3952
3,480,640
3,480,640
3,320,240
3,480,640
3,480,640
3,1872,3952
3,480,640
3,480,640
3,480,640
3,480,640
3,480,640
3,480,640
3,1872,3952
3,480,640
3,480,640
3,480,640
3,480,640
3,240,320
3,480,640
3,480,640
3,240,320
3,240,320
3,240,320
3,480,640
3,480,640
3,480,640
3,480,640
3,240,320
3,480,640
3,480,640
3,3456,4608
3,240,320
3,240,320
3,480,640
3,2448,3264
3,1872,3952
3,240,320
3,1944,2592
3,480,640
3,480,640
3,480,640
3,240,320
3,480,640
3,480,640
3,240,320
3,240,320
3,480,640
3,2448,3264
3,3120,4160
3,480,640
3,480,640
3,480,640
3,240,320
3,1872,3952
3,240,320
3,480,640
3,480,640
3,240,320
3,2448,3264
3,480,640
3,240,320
3,480,640
3,480,640
3,480,640
3,480,640
3,1872,3952
3,480,640
3,240,320
3,240,320
3,480,640
3,480,640
3,240,320
3,240,320
3,480,640
3,3120,4160
3,480,640
3,480,640
3,480,640
3,480,640
3,480,640
3,1872,4160
3,480,640
3,480,640
3,480,640
3,480,640
3,480,640
3,480,640
3,480,640
3,2448,3264
3,480,640
3,480,640
3,240,320
3,480,640
3,480,640
3,480,640
3,240,320
3,2448,3264
3,480,640
3,480,640
3,1872,3952
3,480,640
3,480,640
3,480,640
3,1872,3952
3,3120,4160
3,1872,3952
3,480,640
3,240,320
3,480,640
3,480,640
3,3456,3456
3,2448,3264
3,1952,4128
3,480,640
3,480,640
3,1944,2592
3,240,320
3,480,640
3,240,320
3,480,640
3,2160,3840
3,480,640
3,195,260
3,240,320
3,480,640
3,480,640
3,480,640
3,480,640
3,240,320
3,480,640
3,480,640
3,480,640
3,480,640
3,480,640
3,480,640
3,480,640
3,480,640
3,240,320
3,480,640
3,480,640
3,480,640
3,1872,3952
3,480,640
3,480,640
3,480,640
3,1944,2592
3,1944,2592
3,480,640
3,3120,4160
3,2448,3264
3,480,640
3,480,640
3,480,640
3,1872,3952
3,2448,3264
3,480,640
3,2448,3264
3,3456,4608
3,480,640
3,240,320
3,3120,4160
3,2448,3264
3,480,640
3,480,640
3,2448,3264
3,480,640
3,1944,2592
3,480,640
3,480,640
3,480,640
3,480,640
3,480,640
3,480,640
3,480,640
3,480,640
3,240,320
3,2160,3840
3,480,640
3,1872,4160
3,480,640
3,480,640
3,480,640
3,480,640
3,480,640
3,240,320
3,480,640
3,480,640
3,480,640
3,480,640
3,240,320
3,480,640
3,480,640
3,480,640
3,480,640
3,480,640
3,240,320
3,480,640
3,480,640
3,480,640
3,240,320
3,480,640
3,240,320
3,480,640
3,480,640
3,480,640
3,480,640
3,480,640
3,480,640
3,480,640
3,480,640
3,240,320
3,480,640
3,480,640
3,480,640
3,240,320
3,480,640
3,480,640
3,480,640
3,480,640
3,480,640
3,2160,3840
3,480,640
3,480,640
3,480,640
3,240,320
3,480,640
3,240,320
3,2448,3264
3,240,320
3,240,320
3,480,640
3,240,320
3,480,640
3,480,640
3,240,320
3,480,640
3,480,640
3,480,640
3,480,640
3,480,640
3,240,320
3,1872,3952
3,240,320
3,240,320
3,480,640
3,240,320
3,240,320
3,3456,4608
3,480,640
3,1836,3264
3,480,640
3,480,640
3,480,640
3,480,640
3,2976,3968
3,1872,3952
3,1872,3952
3,480,640
3,480,640
3,480,640
3,480,640
3,240,320
3,480,640
3,480,640
3,240,320
3,480,640
3,480,640
3,240,320
3,480,640
3,480,640
3,240,320
3,480,640
3,240,320
3,480,640
3,480,640
3,480,640
3,1944,2592
3,240,320
3,480,640
3,480,640
3,480,640
3,480,640
3,480,640
3,480,640
3,480,640
3,480,640
3,480,640
3,480,640
3,3120,4160
3,480,640
3,480,640
3,2448,3264
3,480,640
3,480,640
3,480,640
3,480,640
3,480,640
3,1872,3952
3,480,640
3,480,640
3,480,640
3,480,640
3,2976,3968
3,1872,3952
3,240,320
3,480,640
3,480,640
3,1872,3952
3,480,640
3,480,640
3,480,640
3,480,640
3,480,640
3,3120,4160
3,480,640
3,480,640
3,480,640
3,480,640
3,480,640
3,1952,4128
3,2448,3264
3,480,640
3,480,640
3,480,640
3,240,320
3,480,640
3,240,320
3,240,320
3,480,640
3,480,640
3,240,320
3,480,640
3,240,320
3,480,640
3,480,640
3,240,320
3,480,640
3,480,640
3,480,640
3,480,640
3,480,640
3,2448,3264
3,480,640
3,248,186
3,480,640
3,240,320
3,480,640
3,480,640
3,480,640
3,480,640
3,480,640
3,240,320
3,480,640
3,480,640
3,480,640
3,480,640
3,480,640
3,240,320
3,3120,4160
3,1944,2592
3,480,640
3,2160,3840
3,480,640
3,2448,3264
3,480,640
3,480,640
3,240,320
3,240,320
3,2448,3264
3,480,640
3,240,320
3,480,640
3,240,320
3,480,640
3,480,640
3,240,320
3,480,640
3,240,320
3,480,640
3,480,640
3,480,640
3,480,640
3,240,320
3,480,640
3,480,640
3,240,320
3,240,320
3,1872,3952
3,480,640
3,480,640
3,480,640
3,1872,3952
3,3120,4160
3,480,640
3,480,640
3,240,320
3,480,640
3,480,640
3,480,640
3,480,640
3,2448,3264
3,1872,3952
3,480,640
3,3120,4160
3,2448,3264
3,480,640
3,240,320
3,240,320
3,480,640
3,480,640
3,1944,2592
3,480,640
3,480,640
3,480,640
3,1872,3952
3,240,320
3,480,640
3,480,640
3,1872,3952
3,2448,3264
3,480,640
3,240,320
3,480,640
3,240,320
3,2448,3264
3,480,640
3,480,640
3,480,640
3,480,640
3,480,640
3,3120,4160
3,480,640
3,480,640
3,480,640
3,1944,2592
3,480,640
3,480,640
3,240,320
3,1872,3952
3,480,640
3,480,640
3,2448,3264
3,480,640
3,480,640
3,240,320
3,480,640
3,480,640
3,153,204
3,2448,3264
3,480,640
3,480,640
3,240,320
3,480,640
3,480,640
3,480,640
3,240,320
3,144,256
3,240,320
3,2448,3264
3,480,640
3,480,640
3,480,640
3,480,640
3,240,320
3,480,640
3,320,240
3,240,320
3,480,640
3,480,640
3,480,640
3,480,640
3,240,320
3,480,640
3,1800,4000
3,3120,4160
3,1944,2592
3,2448,3264
3,240,320
3,480,640
3,240,320
3,240,320
3,480,640
3,3456,3456
3,2448,3264
3,480,640
3,480,640
3,480,640
3,480,640
3,204,153
3,2448,3264
3,480,640
3,240,320
3,480,640
3,480,640
3,240,320
3,480,640
3,480,640
3,480,640
3,480,640
3,480,640
3,240,320
3,480,640
3,480,640
3,240,320
3,1872,3952
3,204,153
3,240,320
3,240,320
3,480,640
3,240,320
3,3120,4160
3,2448,3264
3,240,320
3,480,640
3,480,640
3,480,640
3,480,640
3,480,640
3,480,640
3,480,640
3,1872,3952
3,480,640
3,3456,4608
3,480,640
3,480,640
3,480,640
3,1872,3952
3,480,640
3,480,640
3,480,640
3,480,640
3,1944,2592
3,480,640
3,480,640
3,204,153
3,480,640
3,480,640
3,240,320
3,480,640
3,480,640
3,240,320
3,1872,3952
3,240,320
3,240,320
3,480,640
3,480,640
3,480,640
3,480,640
3,480,640
3,480,640
3,240,320
3,480,640
3,480,640
3,480,640
3,480,640
3,1944,2592
3,480,640
3,240,320
3,240,320
3,240,320
3,240,320
3,2448,3264
3,480,640
3,480,640
3,480,640
3,480,640
3,240,320
3,480,640
3,240,320
3,480,640
3,480,640
3,1952,4128
3,480,640
3,480,640
3,1872,3952
3,480,640
3,480,640
3,204,153
3,240,320
3,240,320
3,480,640
3,480,640
3,2448,3264
3,480,640
3,240,320
3,1872,3952
3,480,640
3,2448,3264
3,1872,3952
3,480,640
3,480,640
3,480,640
3,240,320
3,480,640
3,480,640
3,2448,3264
3,480,640
3,204,153
3,480,640
3,480,640
3,3120,4160
3,2448,3264
3,480,640
3,480,640
3,1872,3952
3,240,320
3,240,320
3,240,320
3,204,153
3,1872,3952
3,240,320
3,1872,4160
3,480,640
3,480,640
3,1872,3952
3,240,320
3,1872,3952
3,480,640
3,480,640
3,480,640
3,240,320
3,480,640
3,480,640
3,240,320
3,480,640
3,480,640
3,480,640
3,480,640
3,480,640
3,480,640
3,240,320
3,240,320
3,240,320
3,480,640
3,240,320
3,480,640
3,480,640
3,204,153
3,480,640
3,240,320
3,240,320
3,240,320
3,1872,3952
3,2448,3264
3,480,640
3,480,640
3,480,640
3,240,320
3,480,640
3,480,640
3,240,320
3,240,320
3,480,640
3,480,640
3,480,640
3,480,640
3,204,153
3,480,640
3,480,640
3,480,640
3,480,640
3,3120,4160
3,240,320
3,480,640
3,3456,3456
3,240,320
3,480,640
3,480,640
3,240,320
3,480,640
3,480,640
3,240,320
3,480,640
3,480,640
3,240,320
3,480,640
3,480,640
3,480,640
3,480,640
3,240,320
3,480,640
3,240,320
3,480,640
3,1944,2592
3,480,640
3,480,640
3,3096,4128
3,240,320
3,240,320
3,480,640
3,240,320
3,480,640
3,240,320
3,480,640
3,1952,4128
3,240,320
3,1872,3952
3,240,320
3,480,640
3,480,640
3,240,320
3,480,640
3,480,640
3,480,640
3,480,640
3,480,640
3,480,640
3,480,640
3,2448,3264
3,480,640
3,1872,3952
3,1952,4128
3,480,640
3,2448,3264
3,1872,3952
3,1872,3952
3,2448,3264
3,480,640
3,480,640
3,480,640
3,480,640
3,240,320
3,240,320
3,480,640
3,240,320
3,240,320
3,1944,2592
3,240,320
3,480,640
3,204,153
3,480,640
3,480,640
3,480,640
3,480,640
3,240,320
3,480,640
3,480,640
3,204,153
3,480,640
3,240,320
3,240,320
3,240,320
3,480,640
3,480,640
3,480,640
3,480,640
3,2448,3264
3,240,320
3,1944,2592
3,480,640
3,480,640
3,2160,3840
3,240,320
3,3120,4160
3,480,640
3,480,640
3,480,640
3,240,320
3,2448,3264
3,480,640
3,480,640
3,204,153
3,480,640
3,480,640
3,3120,4160
3,240,320
3,480,640
3,480,640
3,480,640
3,480,640
3,240,320
3,480,640
3,240,320
3,480,640
3,480,640
3,480,640
3,240,320
3,1872,3952
3,480,640
3,480,640
3,480,640
3,480,640
3,480,640
3,480,640
3,153,204
3,2448,3264
3,240,320
3,480,640
3,480,640
3,3456,3456
3,480,640
3,2448,3264
3,240,320
3,240,320
3,240,320
3,240,320
3,480,640
3,240,320
3,240,320
3,480,640
3,480,640
3,480,640
3,480,640
3,480,640
3,480,640
3,480,640
3,480,640
3,480,640
3,480,640
3,480,640
3,480,640
3,240,320
3,2448,3264
3,480,640
3,480,640
3,480,640
3,480,640
3,480,640
3,480,640
3,480,640
3,480,640
3,480,640
3,480,640
3,480,640
3,480,640
3,240,320
3,240,320
3,480,640
3,3120,4160
3,240,320
3,480,640
3,2160,3840
3,240,320
3,480,640
3,240,320
3,480,640
3,480,640
3,480,640
3,480,640
3,240,320
3,480,640
3,480,640
3,480,640
3,480,640
3,240,320
3,240,320
3,2448,3264
3,480,640
3,480,640
3,480,640
3,480,640
3,240,320
3,480,640
3,480,640
3,480,640
3,480,640
3,480,640
3,480,640
3,480,640
3,480,640
3,240,320
3,480,640
3,480,640
3,3456,3456
3,480,640
3,2448,3264
3,480,640
3,480,640
3,240,320
3,480,640
3,480,640
3,3456,4608
3,480,640
3,480,640
3,2448,3264
3,480,640
3,240,320
3,1872,3952
3,480,640
3,480,640
3,480,640
3,480,640
3,240,320
3,240,320
3,480,640
3,2976,3968
3,240,320
3,480,640
3,480,640
3,240,320
3,480,640
3,3120,4160
3,2448,3264
3,480,640
3,204,153
3,240,320
3,480,640
3,1872,3952
3,480,640
3,480,640
3,240,320
3,248,186
3,480,640
3,240,320
3,480,640
3,480,640
3,480,640
3,240,320
3,480,640
3,480,640
3,480,640
3,1932,2576
3,480,640
3,480,640
3,480,640
3,480,640
3,240,320
3,480,640
3,240,320
3,1872,3952
3,480,640
3,480,640
3,480,640
3,480,640
3,480,640
3,480,640
3,480,640
3,240,320
3,480,640
3,1872,3952
3,480,640
3,480,640
3,480,640
3,3456,3456
3,480,640
3,480,640
3,480,640
3,480,640
3,480,640
3,240,320
3,240,320
3,2448,3264
3,480,640
3,480,640
3,240,320
3,2160,3840
3,240,320
3,240,320
3,480,640
3,480,640
3,480,640
3,480,640
3,1944,2592
3,480,640
3,480,640
3,240,320
3,2448,3264
3,480,640
3,480,640
3,240,320
3,240,320
3,480,640
3,480,640
3,480,640
3,480,640
3,480,640
3,240,320
3,480,640
3,240,320
3,240,320
3,1872,3952
3,240,320
3,240,320
3,480,640
3,480,640
3,480,640
3,480,640
3,480,640
3,480,640
3,240,320
3,240,320
3,480,640
3,1872,3952
3,240,320
3,240,320
3,480,640
3,240,320
3,480,640
3,240,320
3,480,640
3,480,640
3,480,640
3,480,640
3,480,640
3,480,640
3,240,320
3,480,640
3,480,640
3,240,320
3,480,640
3,480,640
3,480,640
3,2160,3840
3,480,640
3,3120,4160
3,480,640
3,480,640
3,480,640
3,480,640
3,240,320
3,480,640
3,480,640
3,1952,4128
3,480,640
3,480,640
3,480,640
3,240,320
3,2160,3840
3,240,320
3,480,640
3,480,640
3,1944,2592
3,480,640
3,2448,3264
3,240,320
3,240,320
3,1872,3952
3,480,640
3,2448,3264
3,480,640
3,240,320
3,480,640
3,480,640
3,480,640
3,240,320
3,240,320
3,480,640
3,480,640
3,204,153
3,240,320
3,480,640
3,240,320
3,1872,3952
3,480,640
3,1872,3952
3,480,640
3,480,640
3,480,640
3,2448,3264
3,240,320
3,480,640
3,1932,2576
3,240,320
3,480,640
3,480,640
3,240,320
3,480,640
3,480,640
3,240,320
3,480,640
3,240,320
3,480,640
3,240,320
3,240,320
3,240,320
3,240,320
3,480,640
3,2448,3264
3,480,640
3,480,640
3,240,320
3,2448,3264
3,240,320
3,480,640
3,240,320
3,480,640
3,240,320
3,480,640
3,480,640
3,2448,3264
3,480,640
3,480,640
3,480,640
3,240,320
3,240,320
3,3456,4608
3,480,640
3,480,640
3,480,640
3,240,320
3,480,640
3,480,640
3,480,640
3,3456,4608
3,480,640
3,2448,3264
3,480,640
3,480,640
3,480,640
3,480,640
3,480,640
3,480,640
3,240,320
3,480,640
3,480,640
3,480,640
3,1872,3952
3,240,320
3,240,320
3,480,640
3,240,320
3,480,640
3,480,640
3,240,320
3,240,320
3,240,320
3,240,320
3,480,640
3,480,640
3,1872,3952
3,480,640
3,480,640
3,480,640
3,480,640
3,480,640
3,480,640
3,1872,3952
3,480,640
3,240,320
3,480,640
3,204,153
3,480,640
3,1872,3952
3,240,320
3,240,320
3,3120,4160
3,1944,2592
3,240,320
3,480,640
3,480,640
3,480,640
3,1872,3952
3,480,640
3,1800,4000
3,480,640
3,240,320
3,480,640
3,480,640
3,1944,2592
3,480,640
3,2448,3264
3,480,640
3,1872,3952
3,480,640
3,1872,3952
3,480,640
3,240,320
3,240,320
3,480,640
3,480,640
3,480,640
3,480,640
3,240,320
3,3120,4160
3,240,320
3,480,640
3,480,640
3,480,640
3,1872,4160
3,480,640
3,480,640
3,480,640
3,480,640
3,1872,3952
3,480,640
3,480,640
3,480,640
3,480,640
3,480,640
3,480,640
3,480,640
3,480,640
3,480,640
3,480,640
3,480,640
3,480,640
3,480,640
3,240,320
3,480,640
3,153,204
3,480,640
3,1872,3952
3,480,640
3,240,320
3,2448,3264
3,1872,3952
3,480,640
3,480,640
3,480,640
3,240,320
3,3120,4160
3,240,320
3,480,640
3,480,640
3,2448,3264
3,204,153
3,480,640
3,480,640
3,3120,4160
3,480,640
3,3120,4160
3,240,320
3,480,640
3,480,640
3,480,640
3,480,640
3,480,640
3,240,320
3,2448,3264
3,480,640
3,240,320
3,195,260
3,480,640
3,480,640
3,480,640
3,2448,3264
3,480,640
3,480,640
3,480,640
3,480,640
3,480,640
3,240,320
3,240,320
3,1872,3952
3,480,640
3,1932,2576
3,480,640
3,1944,2592
3,480,640
3,480,640
3,480,640
3,2448,3264
3,480,640
3,2448,3264
3,1872,3952
3,480,640
3,480,640
3,480,640
3,2448,3264
3,240,320
3,240,320
3,480,640
3,2448,3264
3,480,640
3,3120,4160
3,2448,3264
3,480,640
3,240,320
3,480,640
3,2448,3264
3,480,640
3,204,153
3,480,640
3,2448,3264
3,480,640
3,480,640
3,480,640
3,240,320
3,480,640
3,480,640
3,480,640
3,2448,3264
3,480,640
3,240,320
3,1872,3952
3,3120,4160
3,480,640
3,240,320
3,480,640
3,1952,4128
3,240,320
3,240,320
3,480,640
3,480,640
3,480,640
3,480,640
3,3120,4160
3,1872,3952
3,3120,4160
3,480,640
3,480,640
3,480,640
3,480,640
3,3120,4160
3,480,640
3,240,320
3,2448,3264
3,480,640
3,480,640
3,480,640
3,240,320
3,480,640
3,480,640
3,2448,3264
3,480,640
3,2448,3264
3,480,640
3,240,320
3,480,640
3,480,640
3,480,640
3,480,640
3,144,256
3,240,320
3,480,640
3,480,640
3,1944,2592
3,480,640
3,240,320
3,480,640
3,240,320
3,204,153
3,480,640
3,240,320
3,3120,4160
3,480,640
3,480,640
3,240,320
3,1872,3952
3,480,640
3,1944,2592
3,480,640
3,480,640
3,1872,3952
3,2448,3264
3,480,640
3,240,320
3,240,320
3,480,640
3,480,640
3,480,640
3,240,320
3,480,640
3,1872,3952
3,480,640
3,480,640
3,480,640
3,3120,4160
3,260,117
3,480,640
3,240,320
3,240,320
3,240,320
3,480,640
3,480,640
3,480,640
3,480,640
3,480,640
3,3456,4608
3,480,640
3,480,640
3,480,640
3,240,320
3,480,640
3,480,640
3,480,640
3,480,640
3,480,640
3,480,640
3,480,640
3,240,320
3,480,640
3,240,320
3,480,640
3,480,640
3,480,640
3,480,640
3,480,640
3,480,640
3,480,640
3,480,640
3,480,640
3,240,320
3,1872,3952
3,480,640
3,1952,4128
3,480,640
3,480,640
3,480,640
3,480,640
3,1952,4128
3,2448,3264
3,240,320
3,480,640
3,1872,3952
3,480,640
3,2448,3264
3,204,153
3,480,640
3,480,640
3,240,320
3,3120,4160
3,2448,3264
3,240,320
3,480,640
3,480,640
3,480,640
3,480,640
3,3120,4160
3,480,640
3,240,320
3,240,320
3,240,320
3,480,640
3,480,640
3,480,640
3,480,640
3,480,640
3,1952,4128
3,240,320
3,480,640
3,240,320
3,480,640
3,3456,4608
3,240,320
3,240,320
3,2448,3264
3,3120,4160
3,480,640
3,1944,2592
3,240,320
3,2448,3264
3,240,320
3,240,320
3,480,640
3,480,640
3,240,320
3,480,640
3,2448,3264
3,480,640
3,480,640
3,240,320
3,240,320
3,480,640
3,240,320
3,480,640
3,480,640
3,2448,3264
3,480,640
3,240,320
3,480,640
3,480,640
3,240,320
3,480,640
3,480,640
3,480,640
3,240,320
3,1952,4128
3,480,640
3,2160,3840
3,480,640
3,480,640
3,240,320
3,240,320
3,1872,3952
3,240,320
3,480,640
3,1872,3952
3,2448,3264
3,240,320
3,240,320
3,240,320
3,480,640
3,240,320
3,480,640
3,480,640
3,480,640
3,480,640
3,480,640
3,480,640
3,480,640
3,480,640
3,480,640
3,480,640
3,240,320
3,480,640
3,240,320
3,480,640
3,240,320
3,480,640
3,240,320
3,480,640
3,480,640
3,480,640
3,480,640
3,3120,4160
3,240,320
3,480,640
3,1932,2576
3,480,640
3,480,640
3,480,640
3,1944,2592
3,240,320
3,480,640
3,240,320
3,480,640
3,480,640
3,204,153
3,480,640
3,3120,4160
3,480,640
3,240,320
3,240,320
3,2448,3264
3,240,320
3,480,640
3,480,640
3,240,320
3,480,640
3,480,640
3,480,640
3,240,320
3,480,640
3,480,640
3,480,640
3,2448,3264
3,480,640
3,480,640
3,2160,3840
3,2448,3264
3,480,640
3,480,640
3,3120,4160
3,480,640
3,480,640
3,3120,4160
3,480,640
3,240,320
3,480,640
3,240,320
3,240,320
3,3120,4160
3,240,320
3,480,640
3,1872,3952
3,480,640
3,480,640
3,480,640
3,480,640
3,480,640
3,480,640
3,480,640
3,240,320
3,480,640
3,480,640
3,1932,2576
3,240,320
3,480,640
3,480,640
3,204,153
3,480,640
3,240,320
3,240,320
3,480,640
3,480,640
3,480,640
3,480,640
3,240,320
3,240,320
3,480,640
3,240,320
3,240,320
3,480,640
3,240,320
3,480,640
3,480,640
3,480,640
3,2448,3264
3,480,640
3,480,640
3,480,640
3,480,640
3,480,640
3,1872,3952
3,480,640
3,480,640
3,480,640
3,480,640
3,480,640
3,480,640
3,480,640
3,480,640
3,480,640
3,480,640
3,480,640
3,480,640
3,240,320
3,240,320
3,480,640
3,1872,3952
3,480,640
3,480,640
3,1932,2576
3,480,640
3,1872,3952
3,1872,3952
3,240,320
3,480,640
3,480,640
3,240,320
3,240,320
3,240,320
3,3120,4160
3,480,640
3,480,640
3,240,320
3,240,320
3,480,640
3,1872,3952
3,480,640
3,480,640
3,480,640
3,480,640
3,240,320
3,480,640
3,240,320
3,480,640
3,1944,2592
3,480,640
3,1932,2576
3,1872,3952
3,204,153
3,480,640
3,1872,3952
3,480,640
3,480,640
3,3120,4160
3,480,640
3,480,640
3,480,640
3,1944,2592
3,480,640
3,153,204
3,480,640
3,240,320
3,480,640
3,2448,3264
3,480,640
3,480,640
3,480,640
3,480,640
3,480,640
3,3120,4160
3,480,640
3,480,640
3,480,640
3,2448,3264
3,3120,4160
3,480,640
3,480,640
3,480,640
3,1872,3952
3,480,640
3,204,153
3,2448,3264
3,3120,4160
3,480,640
3,480,640
3,480,640
3,1872,4160
3,3120,4160
3,480,640
3,480,640
3,480,640
3,2448,3264
3,240,320
3,480,640
3,480,640
3,480,640
3,480,640
3,3456,4608
3,480,640
3,480,640
3,240,320
3,1872,3952
3,480,640
3,480,640
3,3456,3456
3,240,320
3,480,640
3,240,320
3,2448,3264
3,480,640
3,480,640
3,240,320
3,480,640
3,240,320
3,240,320
3,480,640
3,480,640
3,480,640
3,480,640
3,480,640
3,2448,3264
3,480,640
3,240,320
3,240,320
3,240,320
3,240,320
3,240,320
3,240,320
3,480,640
3,480,640
3,480,640
3,1872,3952
3,3456,3456
3,480,640
3,480,640
3,2448,3264
3,480,640
3,480,640
3,480,640
3,480,640
3,3456,4608
3,480,640
3,2448,3264
3,480,640
3,480,640
3,480,640
3,240,320
3,240,320
3,480,640
3,480,640
3,480,640
3,1872,3952
3,240,320
3,480,640
3,240,320
3,480,640
3,480,640
3,480,640
3,3120,4160
3,1944,2592
3,480,640
3,240,320
3,240,320
3,240,320
3,480,640
3,480,640
3,480,640
3,480,640
3,480,640
3,480,640
3,480,640
3,480,640
3,480,640
3,240,320
3,480,640
3,480,640
3,1944,2592
3,480,640
3,2448,3264
3,480,640
3,480,640
3,240,320
3,480,640
3,240,320
3,480,640
3,480,640
3,240,320
3,2448,3264
3,240,320
3,240,320
3,240,320
3,1872,3952
3,2448,3264
3,240,320
3,480,640
3,480,640
3,1944,2592
3,240,320
3,240,320
3,480,640
3,480,640
3,480,640
3,480,640
3,2976,3968
3,480,640
3,1932,2576
3,480,640
3,480,640
3,2448,3264
3,480,640
3,480,640
3,1872,3952
3,240,320
3,240,320
3,480,640
3,480,640
3,480,640
3,240,320
3,480,640
3,480,640
3,1920,2560
3,480,640
3,480,640
3,2448,3264
3,240,320
3,480,640
3,3456,4608
3,480,640
3,480,640
3,480,640
3,480,640
3,480,640
3,2448,3264
3,480,640
3,480,640
3,480,640
3,480,640
3,240,320
3,240,320
3,480,640
3,480,640
3,480,640
3,480,640
3,480,640
3,480,640
3,480,640
3,3456,4608
3,1872,3952
3,480,640
3,480,640
3,480,640
3,480,640
3,480,640
3,480,640
3,480,640
3,1872,3952
3,2160,3840
3,480,640
3,480,640
3,240,320
3,480,640
3,240,320
3,240,320
3,1952,4128
3,480,640
3,480,640
3,240,320
3,480,640
3,480,640
3,480,640
3,2448,3264
3,480,640
3,480,640
3,240,320
3,3120,4160
3,240,320
3,480,640
3,240,320
3,480,640
3,480,640
3,480,640
3,480,640
3,480,640
3,480,640
3,240,320
3,240,320
3,1932,2576
3,480,640
3,480,640
3,480,640
3,1872,3952
3,480,640
3,480,640
3,240,320
3,240,320
3,240,320
3,480,640
3,480,640
3,480,640
3,480,640
3,1872,3952
3,480,640
3,480,640
3,1872,3952
3,240,320
3,480,640
3,240,320
3,480,640
3,480,640
3,480,640
3,480,640
3,320,240
3,480,640
3,480,640
3,480,640
3,240,320
3,240,320
3,1944,2592
3,240,320
3,480,640
3,480,640
3,240,320
3,1944,2592
3,240,320
3,240,320
3,2448,3264
3,480,640
3,240,320
3,480,640
3,240,320
3,480,640
3,3456,4608
3,1944,2592
3,240,320
3,480,640
3,240,320
3,480,640
3,480,640
3,480,640
3,480,640
3,480,640
3,480,640
3,3120,4160
3,480,640
3,480,640
3,194,194
3,240,320
3,480,640
3,240,320
3,480,640
3,480,640
3,480,640
3,480,640
3,480,640
3,240,320
3,480,640
3,480,640
3,2448,3264
3,480,640
3,480,640
3,480,640
3,480,640
3,240,320
3,240,320
3,480,640
3,480,640
3,480,640
3,3120,4160
3,480,640
3,3120,4160
3,480,640
3,1872,3952
3,240,320
3,480,640
3,240,320
3,1932,2576
3,480,640
3,480,640
3,480,640
3,2448,3264
3,1872,3952
3,240,320
3,240,320
3,480,640
3,480,640
3,480,640
3,480,640
3,1872,3952
3,480,640
3,480,640
3,480,640
3,1872,3952
3,480,640
3,480,640
3,240,320
3,3456,4608
3,240,320
3,3456,4608
3,480,640
3,240,320
3,480,640
3,480,640
3,3120,4160
3,3120,4160
3,240,320
3,480,640
3,240,320
3,240,320
3,2448,3264
3,480,640
3,480,640
3,1872,3952
3,480,640
3,240,320
3,480,640
3,240,320
3,480,640
3,480,640
3,480,640
3,240,320
3,480,640
3,480,640
3,240,320
3,480,640
3,3120,4160
3,480,640
3,480,640
3,480,640
3,480,640
3,240,320
3,480,640
3,480,640
3,240,320
3,240,320
3,480,640
3,480,640
3,480,640
3,480,640
3,240,320
3,480,640
3,480,640
3,480,640
3,2448,3264
3,240,320
3,480,640
3,1872,3952
3,240,320
3,240,320
3,480,640
3,480,640
3,204,153
3,1944,2592
3,240,320
3,480,640
3,480,640
3,240,320
3,240,320
3,480,640
3,480,640
3,240,320
3,480,640
3,480,640
3,480,640
3,1944,2592
3,240,320
3,480,640
3,480,640
3,480,640
3,480,640
3,480,640
3,240,320
3,480,640
3,240,320
3,240,320
3,240,320
3,240,320
3,2448,3264
3,480,640
3,480,640
3,480,640
3,1872,3952
3,240,320
3,240,320
3,480,640
3,480,640
3,480,640
3,240,320
3,480,640
3,240,320
3,480,640
3,153,204
3,1944,2592
3,240,320
3,480,640
3,480,640
3,240,320
3,480,640
3,2448,3264
3,480,640
3,480,640
3,1872,3952
3,1872,3952
3,1872,3952
3,480,640
3,240,320
3,480,640
3,480,640
3,240,320
3,480,640
3,480,640
3,480,640
3,2448,3264
3,480,640
3,240,320
3,1872,3952
3,480,640
3,480,640
3,480,640
3,480,640
3,240,320
3,480,640
3,480,640
3,480,640
3,480,640
3,2448,3264
3,240,320
3,1872,3952
3,2448,3264
3,240,320
3,480,640
3,480,640
3,2448,3264
3,1944,2592
3,153,204
3,480,640
3,2448,3264
3,240,320
3,480,640
3,480,640
3,480,640
3,480,640
3,1872,3952
3,480,640
3,480,640
3,480,640
3,480,640
3,480,640
3,480,640
3,480,640
3,480,640
3,1872,3952
3,480,640
3,2448,3264
3,240,320
3,480,640
3,2448,3264
3,480,640
3,240,320
3,240,320
3,480,640
3,1872,3952
3,240,320
3,480,640
3,480,640
3,480,640
3,240,320
3,240,320
3,144,256
3,480,640
3,480,640
3,480,640
3,1872,3952
3,240,320
3,240,320
3,240,320
3,240,320
3,240,320
3,240,320
3,480,640
3,480,640
3,240,320
3,480,640
3,480,640
3,480,640
3,3456,3456
3,480,640
3,3456,3456
3,480,640
3,480,640
3,240,320
3,240,320
3,480,640
3,2448,3264
3,480,640
3,480,640
3,480,640
3,480,640
3,240,320
3,480,640
3,480,640
3,240,320
3,480,640
3,480,640
3,480,640
3,480,640
3,480,640
3,480,640
3,480,640
3,240,320
3,480,640
3,480,640
3,480,640
3,240,320
3,144,256
3,3120,4160
3,2448,3264
3,480,640
3,153,204
3,480,640
3,240,320
3,480,640
3,480,640
3,480,640
3,480,640
3,2448,3264
3,480,640
3,480,640
3,480,640
3,480,640
3,480,640
3,480,640
3,2448,3264
3,240,320
3,480,640
3,240,320
3,240,320
3,480,640
3,240,320
3,480,640
3,2160,3840
3,480,640
3,480,640
3,480,640
3,480,640
3,480,640
3,480,640
3,2448,3264
3,480,640
3,480,640
3,2448,3264
3,480,640
3,240,320
3,240,320
3,480,640
3,2448,3264
3,480,640
3,240,320
3,480,640
3,480,640
3,480,640
3,240,320
3,480,640
3,480,640
3,480,640
3,480,640
3,240,320
3,480,640
3,240,320
3,2448,3264
3,1872,3952
3,240,320
3,480,640
3,480,640
3,480,640
3,480,640
3,2448,3264
3,480,640
3,480,640
3,240,320
3,480,640
3,2976,3968
3,480,640
3,480,640
3,480,640
3,480,640
3,480,640
3,480,640
3,240,320
3,240,320
3,2448,3264
3,480,640
3,480,640
3,480,640
3,240,320
3,240,320
3,480,640
3,2448,3264
3,204,153
3,480,640
3,240,320
3,480,640
3,240,320
3,480,640
3,3120,4160
3,480,640
3,480,640
3,480,640
3,3456,4608
3,480,640
3,3120,4160
3,480,640
3,480,640
3,240,320
3,480,640
3,480,640
3,2160,3840
3,240,320
3,480,640
3,240,320
3,240,320
3,240,320
3,1872,3952
3,480,640
3,240,320
3,480,640
3,240,320
3,1872,3952
3,480,640
3,1952,4128
3,240,320
3,240,320
3,480,640
3,480,640
3,240,320
3,480,640
3,240,320
3,480,640
3,204,153
3,480,640
3,480,640
3,480,640
3,260,195
3,1944,2592
3,480,640
3,480,640
3,3120,4160
3,480,640
3,480,640
3,240,320
3,480,640
3,480,640
3,480,640
3,2160,3840
3,480,640
3,240,320
3,480,640
3,240,320
3,480,640
3,480,640
3,480,640
3,480,640
3,480,640
3,480,640
3,240,320
3,240,320
3,240,320
3,480,640
3,480,640
3,480,640
3,480,640
3,240,320
3,480,640
3,480,640
3,480,640
3,480,640
3,480,640
3,240,320
3,480,640
3,480,640
3,480,640
3,480,640
3,480,640
3,480,640
3,1872,3952
3,480,640
3,480,640
3,480,640
3,240,320
3,480,640
3,480,640
3,480,640
3,480,640
3,480,640
3,240,320
3,480,640
3,480,640
3,480,640
3,480,640
3,1872,3952
3,1932,2576
3,480,640
3,240,320
3,240,320
3,240,320
3,480,640
3,480,640
3,480,640
3,480,640
3,240,320
3,480,640
3,240,320
3,480,640
3,480,640
3,240,320
3,480,640
3,480,640
3,480,640
3,480,640
3,480,640
3,480,640
3,240,320
3,1872,3952
3,195,260
3,240,320
3,480,640
3,480,640
3,480,640
3,240,320
3,480,640
3,480,640
3,240,320
3,480,640
3,480,640
3,480,640
3,480,640
3,240,320
3,240,320
3,480,640
3,144,256
3,480,640
3,480,640
3,480,640
3,480,640
3,1872,3952
3,240,320
3,480,640
3,240,320
3,480,640
3,240,320
3,240,320
3,240,320
3,480,640
3,2448,3264
3,1872,3952
3,240,320
3,480,640
3,480,640
3,480,640
3,2448,3264
3,480,640
3,480,640
3,480,640
3,480,640
3,240,320
3,1836,3264
3,240,320
3,2976,3968
3,480,640
3,480,640
3,1872,3952
3,480,640
3,480,640
3,1872,4160
3,480,640
3,480,640
3,480,640
3,480,640
3,480,640
3,480,640
3,240,320
3,480,640
3,480,640
3,2448,3264
3,480,640
3,480,640
3,480,640
3,3456,3456
3,480,640
3,1944,2592
3,240,320
3,480,640
3,480,640
3,480,640
3,240,320
3,240,320
3,204,153
3,240,320
3,480,640
3,480,640
3,2448,3264
3,3120,4160
3,480,640
3,2448,3264
3,480,640
3,480,640
3,240,320
3,480,640
3,3456,4608
3,480,640
3,240,320
3,3120,4160
3,480,640
3,480,640
3,240,320
3,480,640
3,480,640
3,480,640
3,240,320
3,240,320
3,480,640
3,204,153
3,2448,3264
3,480,640
3,195,260
3,480,640
3,480,640
3,480,640
3,480,640
3,240,320
3,480,640
3,1872,3952
3,480,640
3,480,640
3,480,640
3,480,640
3,2448,3264
3,480,640
3,480,640
3,1872,3952
3,480,640
3,480,640
3,480,640
3,480,640
3,480,640
3,480,640
3,240,320
3,240,320
3,480,640
3,480,640
3,480,640
3,480,640
3,480,640
3,480,640
3,240,320
3,480,640
3,240,320
3,480,640
3,480,640
3,480,640
3,3120,4160
3,480,640
3,480,640
3,480,640
3,480,640
3,480,640
3,480,640
3,480,640
3,480,640
3,480,640
3,480,640
3,480,640
3,2448,3264
3,480,640
3,480,640
3,240,320
3,260,195
3,480,640
3,240,320
3,480,640
3,1932,2576
3,240,320
3,480,640
3,240,320
3,240,320
3,1872,3952
3,480,640
3,480,640
3,480,640
3,240,320
3,480,640
3,480,640
3,3120,4160
3,480,640
3,2448,3264
3,2448,3264
3,480,640
3,480,640
3,480,640
3,2448,3264
3,480,640
3,1944,2592
3,240,320
3,1872,3952
3,480,640
3,480,640
3,480,640
3,480,640
3,240,320
3,3120,4160
3,480,640
3,2448,3264
3,2448,3264
3,480,640
3,1872,3952
3,480,640
3,480,640
3,480,640
3,480,640
3,240,320
3,480,640
3,3120,4160
3,480,640
3,240,320
3,480,640
3,480,640
3,1872,3952
3,2448,3264
3,480,640
3,480,640
3,480,640
3,240,320
3,480,640
3,480,640
3,480,640
3,480,640
3,1952,4128
3,1944,2592
3,480,640
3,480,640
3,480,640
3,480,640
3,480,640
3,480,640
3,240,320
3,240,320
3,480,640
3,480,640
3,480,640
3,480,640
3,240,320
3,480,640
3,480,640
3,204,153
3,480,640
3,480,640
3,480,640
3,240,320
3,240,320
3,2448,3264
3,195,260
3,480,640
3,240,320
3,480,640
3,480,640
3,480,640
3,480,640
3,480,640
3,1944,2592
3,480,640
3,480,640
3,480,640
3,2448,3264
3,480,640
3,480,640
3,480,640
3,240,320
3,240,320
3,480,640
3,480,640
3,480,640
3,240,320
3,480,640
3,480,640
3,240,320
3,480,640
3,480,640
3,480,640
3,240,320
3,480,640
3,240,320
3,480,640
3,480,640
3,1872,3952
3,480,640
3,480,640
3,480,640
3,240,320
3,3120,4160
3,480,640
3,240,320
3,480,640
3,1944,2592
3,480,640
3,240,320
3,480,640
3,480,640
3,480,640
3,480,640
3,1944,2592
3,480,640
3,240,320
3,240,320
3,240,320
3,240,320
3,480,640
3,480,640
3,240,320
3,2448,3264
3,480,640
3,480,640
3,240,320
3,2160,3840
3,2448,3264
3,2448,3264
3,480,640
3,240,320
3,480,640
3,240,320
3,2448,3264
3,480,640
3,480,640
3,480,640
3,480,640
3,240,320
3,480,640
3,480,640
3,480,640
3,1872,3952
3,240,320
3,2448,3264
3,3120,4160
3,480,640
3,480,640
3,480,640
3,204,153
3,240,320
3,480,640
3,480,640
3,480,640
3,240,320
3,480,640
3,480,640
3,240,320
3,2448,3264
3,1872,3952
3,240,320
3,1872,3952
3,480,640
3,240,320
3,240,320
3,204,153
3,480,640
3,480,640
3,480,640
3,240,320
3,240,320
3,3456,4608
3,2448,3264
3,480,640
3,480,640
3,240,320
3,2448,3264
3,2448,3264
3,480,640
3,240,320
3,480,640
3,2448,3264
3,480,640
3,480,640
3,1872,3952
3,480,640
3,2448,3264
3,480,640
3,480,640
3,480,640
3,480,640
3,480,640
3,162,122
3,240,320
3,480,640
3,480,640
3,480,640
3,1952,4128
3,480,640
3,153,204
3,144,256
3,480,640
3,240,320
3,240,320
3,480,640
3,480,640
3,480,640
3,3120,4160
3,480,640
3,240,320
3,480,640
3,480,640
3,240,320
3,480,640
3,1872,3952
3,480,640
3,480,640
3,480,640
3,480,640
3,480,640
3,480,640
3,480,640
3,480,640
3,480,640
3,480,640
3,480,640
3,480,640
3,480,640
3,480,640
3,1944,2592
3,480,640
3,1872,3952
3,480,640
3,1944,2592
3,480,640
3,480,640
3,480,640
3,240,320
3,480,640
3,480,640
3,480,640
3,480,640
3,480,640
3,480,640
3,480,640
3,153,204
3,1872,3952
3,3456,4608
3,480,640
3,240,320
3,240,320
3,480,640
3,240,320
3,240,320
3,2448,3264
3,480,640
3,240,320
3,480,640
3,480,640
3,480,640
3,3120,4160
3,240,320
3,480,640
3,480,640
3,240,320
3,240,320
3,480,640
3,2160,3840
3,480,640
3,480,640
3,240,320
3,480,640
3,480,640
3,480,640
3,480,640
3,480,640
3,480,640
3,480,640
3,204,153
3,480,640
3,480,640
3,480,640
3,480,640
3,480,640
3,480,640
3,1872,3952
3,240,320
3,204,153
3,480,640
3,240,320
3,480,640
3,480,640
3,320,240
3,240,320
3,480,640
3,240,320
3,240,320
3,480,640
3,480,640
3,480,640
3,480,640
3,480,640
3,480,640
3,480,640
3,480,640
3,240,320
3,240,320
3,240,320
3,480,640
3,480,640
3,480,640
3,240,320
3,480,640
3,480,640
3,480,640
3,240,320
3,480,640
3,1944,2592
3,480,640
3,480,640
3,2160,3840
3,240,320
3,480,640
3,480,640
3,240,320
3,1932,2576
3,240,320
3,480,640
3,1872,3952
3,240,320
3,480,640
3,1872,3952
3,480,640
3,240,320
3,240,320
3,195,260
3,1872,3952
3,480,640
3,1872,3952
3,480,640
3,480,640
3,240,320
3,480,640
3,240,320
3,240,320
3,480,640
3,480,640
3,480,640
3,480,640
3,480,640
3,260,195
3,240,320
3,240,320
3,2448,3264
3,3120,4160
3,480,640
3,2448,3264
3,480,640
3,480,640
3,480,640
3,480,640
3,240,320
3,240,320
3,240,320
3,240,320
3,480,640
3,480,640
3,480,640
3,480,640
3,480,640
3,240,320
3,480,640
3,240,320
3,2448,3264
3,2448,3264
3,240,320
3,240,320
3,2448,3264
3,480,640
3,480,640
3,480,640
3,480,640
3,480,640
3,240,320
3,480,640
3,480,640
3,480,640
3,480,640
3,480,640
3,480,640
3,1872,3952
3,480,640
3,480,640
3,480,640
3,1872,3952
3,240,320
3,240,320
3,240,320
3,480,640
3,480,640
3,2448,3264
3,480,640
3,240,320
3,480,640
3,1872,3952
3,480,640
3,240,320
3,480,640
3,480,640
3,3120,4160
3,2448,3264
3,480,640
3,480,640
3,240,320
3,204,153
3,480,640
3,240,320
3,480,640
3,480,640
3,480,640
3,240,320
3,240,320
3,240,320
3,3456,3456
3,480,640
3,480,640
3,1944,2592
3,240,320
3,480,640
3,2448,3264
3,153,204
3,480,640
3,240,320
3,480,640
3,480,640
3,240,320
3,480,640
3,480,640
3,480,640
3,480,640
3,480,640
3,480,640
3,480,640
3,3456,4608
3,480,640
3,480,640
3,240,320
3,480,640
3,2448,3264
3,240,320
3,480,640
3,480,640
3,480,640
3,240,320
3,480,640
3,480,640
3,480,640
3,480,640
3,480,640
3,240,320
3,2448,3264
3,240,320
3,480,640
3,2448,3264
3,480,640
3,480,640
3,3456,3456
3,480,640
3,3120,4160
3,480,640
3,240,320
3,480,640
3,240,320
3,480,640
3,480,640
3,480,640
3,480,640
3,480,640
3,480,640
3,1872,3952
3,2448,3264
3,480,640
3,480,640
3,480,640
3,480,640
3,480,640
3,480,640
3,480,640
3,240,320
3,480,640
3,240,320
3,480,640
3,240,320
3,240,320
3,240,320
3,480,640
3,480,640
3,480,640
3,480,640
3,240,320
3,480,640
3,2448,3264
3,480,640
3,240,320
3,480,640
3,480,640
3,480,640
3,480,640
3,240,320
3,480,640
3,1932,2576
3,204,153
3,2448,3264
3,480,640
3,480,640
3,480,640
3,480,640
3,2448,3264
3,480,640
3,480,640
3,480,640
3,480,640
3,240,320
3,480,640
3,480,640
3,480,640
3,480,640
3,1872,3952
3,1872,3952
3,240,320
3,480,640
3,3120,4160
3,480,640
3,240,320
3,240,320
3,480,640
3,2448,3264
3,480,640
3,480,640
3,480,640
3,480,640
3,3456,3456
3,480,640
3,480,640
3,1944,2592
3,480,640
3,480,640
3,240,320
3,480,640
3,480,640
3,240,320
3,480,640
3,480,640
3,480,640
3,480,640
3,480,640
3,240,320
3,1872,3952
3,240,320
3,480,640
3,1872,3952
3,480,640
3,480,640
3,480,640
3,480,640
3,480,640
3,480,640
3,240,320
3,480,640
3,480,640
3,240,320
3,480,640
3,480,640
3,480,640
3,1944,2592
3,480,640
3,240,320
3,1944,2592
3,480,640
3,240,320
3,240,320
3,240,320
3,480,640
3,480,640
3,1932,2576
3,1872,3952
3,480,640
3,480,640
3,240,320
3,480,640
3,480,640
3,240,320
3,480,640
3,480,640
3,480,640
3,240,320
3,480,640
3,480,640
3,240,320
3,2448,3264
3,240,320
3,480,640
3,2160,3840
3,480,640
3,240,320
3,240,320
3,480,640
3,480,640
3,480,640
3,144,256
3,1872,3952
3,240,320
3,240,320
3,480,640
3,480,640
3,480,640
3,480,640
3,480,640
3,480,640
3,240,320
3,240,320
3,480,640
3,240,320
3,240,320
3,480,640
3,480,640
3,240,320
3,480,640
3,480,640
3,480,640
3,480,640
3,480,640
3,3456,3456
3,480,640
3,2448,3264
3,480,640
3,480,640
3,480,640
3,480,640
3,480,640
3,480,640
3,1872,3952
3,240,320
3,480,640
3,480,640
3,2448,3264
3,480,640
3,240,320
3,240,320
3,480,640
3,480,640
3,480,640
3,480,640
3,2448,3264
3,480,640
3,480,640
3,204,153
3,480,640
3,480,640
3,480,640
3,240,320
3,480,640
3,480,640
3,480,640
3,480,640
3,480,640
3,2160,3840
3,480,640
3,1872,3952
3,480,640
3,240,320
3,240,320
3,240,320
3,480,640
3,480,640
3,480,640
3,1872,3952
3,480,640
3,480,640
3,240,320
3,240,320
3,480,640
3,1944,2592
3,480,640
3,2448,3264
3,240,320
3,480,640
3,480,640
3,240,320
3,240,320
3,1872,3952
3,480,640
3,240,320
3,480,640
3,480,640
3,480,640
3,480,640
3,480,640
3,480,640
3,480,640
3,480,640
3,240,320
3,240,320
3,480,640
3,480,640
3,480,640
3,480,640
3,480,640
3,240,320
3,240,320
3,153,204
3,480,640
3,480,640
3,480,640
3,480,640
3,2448,3264
3,480,640
3,480,640
3,480,640
3,480,640
3,3120,4160
3,480,640
3,480,640
3,1872,3952
3,1944,2592
3,480,640
3,480,640
3,240,320
3,480,640
3,3120,4160
3,240,320
3,1932,2576
3,240,320
3,240,320
3,480,640
3,480,640
3,3456,4608
3,480,640
3,480,640
3,240,320
3,480,640
3,1872,3952
3,480,640
3,480,640
3,480,640
3,480,640
3,480,640
3,240,320
3,480,640
3,3456,4608
3,480,640
3,480,640
3,480,640
3,480,640
3,480,640
3,240,320
3,480,640
3,480,640
3,480,640
3,1944,2592
3,240,320
3,480,640
3,480,640
3,240,320
3,240,320
3,240,320
3,480,640
3,480,640
3,480,640
3,2448,3264
3,480,640
3,3120,4160
3,1872,3952
3,480,640
3,480,640
3,480,640
3,480,640
3,240,320
3,480,640
3,480,640
3,240,320
3,480,640
3,240,320
3,480,640
3,480,640
3,1952,4128
3,480,640
3,480,640
3,480,640
3,240,320
3,240,320
3,240,320
3,480,640
3,480,640
3,480,640
3,1872,3952
3,480,640
3,240,320
3,240,320
3,480,640
3,1944,2592
3,480,640
3,480,640
3,480,640
3,2448,3264
3,480,640
3,204,153
3,240,320
3,240,320
3,480,640
3,480,640
3,240,320
3,480,640
3,240,320
3,240,320
3,240,320
3,1872,3952
3,480,640
3,2448,3264
3,480,640
3,480,640
3,480,640
3,2448,3264
3,1872,3952
3,480,640
3,240,320
3,2448,3264
3,480,640
3,480,640
3,204,153
3,240,320
3,480,640
3,480,640
3,480,640
3,3120,4160
3,240,320
3,480,640
3,240,320
3,240,320
3,480,640
3,480,640
3,480,640
3,480,640
3,480,640
3,240,320
3,1872,3952
3,240,320
3,480,640
3,240,320
3,240,320
3,480,640
3,3120,4160
3,2448,3264
3,240,320
3,2448,3264
3,240,320
3,480,640
3,1872,3952
3,1872,3952
3,2448,3264
3,480,640
3,480,640
3,480,640
3,2448,3264
3,480,640
3,480,640
3,480,640
3,480,640
3,2448,3264
3,480,640
3,480,640
3,240,320
3,480,640
3,2448,3264
3,480,640
3,480,640
3,480,640
3,480,640
3,240,320
3,480,640
3,480,640
3,1952,4128
3,240,320
3,480,640
3,3456,3456
3,480,640
3,204,153
3,480,640
3,480,640
3,480,640
3,480,640
3,480,640
3,480,640
3,240,320
3,480,640
3,480,640
3,240,320
3,480,640
3,2448,3264
3,240,320
3,240,320
3,480,640
3,2448,3264
3,240,320
3,480,640
3,240,320
3,480,640
3,480,640
3,480,640
3,480,640
3,240,320
3,480,640
3,240,320
3,480,640
3,240,320
3,2448,3264
3,480,640
3,480,640
3,480,640
3,144,256
3,480,640
3,480,640
3,480,640
3,480,640
3,240,320
3,480,640
3,240,320
3,240,320
3,1872,3952
3,240,320
3,240,320
3,480,640
3,480,640
3,480,640
3,480,640
3,480,640
3,1952,4128
3,480,640
3,480,640
3,480,640
3,1872,3952
3,480,640
3,480,640
3,240,320
3,480,640
3,480,640
3,480,640
3,480,640
3,480,640
3,240,320
3,2448,3264
3,480,640
3,240,320
3,3120,4160
3,240,320
3,240,320
3,480,640
3,480,640
3,480,640
3,240,320
3,240,320
3,480,640
3,480,640
3,240,320
3,480,640
3,1872,3952
3,240,320
3,204,153
3,480,640
3,480,640
3,2160,3840
3,480,640
3,480,640
3,480,640
3,240,320
3,3120,4160
3,1944,2592
3,240,320
3,480,640
3,480,640
3,1872,3952
3,240,320
3,480,640
3,240,320
3,480,640
3,480,640
3,480,640
3,2448,3264
3,240,320
3,240,320
3,2976,3968
3,480,640
3,480,640
3,3120,4160
3,1944,2592
3,240,320
3,480,640
3,480,640
3,240,320
3,3456,3456
3,480,640
3,480,640
3,480,640
3,1872,3952
3,240,320
3,480,640
3,2448,3264
3,480,640
3,240,320
3,480,640
3,1872,3952
3,480,640
3,480,640
3,240,320
3,240,320
3,480,640
3,121,162
3,480,640
3,480,640
3,240,320
3,3456,4608
3,240,320
3,480,640
3,1872,3952
3,480,640
3,480,640
3,480,640
3,1944,2592
3,480,640
3,480,640
3,480,640
3,480,640
3,240,320
3,3120,4160
3,480,640
3,1944,2592
3,480,640
3,480,640
3,480,640
3,480,640
3,480,640
3,2448,3264
3,3456,3456
3,480,640
3,480,640
3,480,640
3,240,320
3,3456,3456
3,480,640
3,1872,3952
3,2448,3264
3,480,640
3,480,640
3,480,640
3,480,640
3,480,640
3,3120,4160
3,480,640
3,3120,4160
3,1872,3952
3,3120,4160
3,1944,2592
3,240,320
3,480,640
3,153,204
3,240,320
3,480,640
3,2448,3264
3,480,640
3,480,640
3,2448,3264
3,240,320
3,240,320
3,480,640
3,480,640
3,480,640
3,2448,3264
3,240,320
3,480,640
3,240,320
3,2448,3264
3,2448,3264
3,480,640
3,480,640
3,2448,3264
3,240,320
3,2448,3264
3,480,640
3,480,640
3,3456,4608
3,2448,3264
3,240,320
3,480,640
3,480,640
3,480,640
3,2448,3264
3,480,640
3,480,640
3,240,320
3,1872,3952
3,2448,3264
3,480,640
3,240,320
3,480,640
3,480,640
3,480,640
3,1872,3952
3,1872,3952
3,480,640
3,240,320
3,480,640
3,1872,3952
3,2448,3264
3,480,640
3,2448,3264
3,480,640
3,2448,3264
3,1944,2592
3,480,640
3,480,640
3,480,640
3,480,640
3,480,640
3,480,640
3,480,640
3,480,640
3,480,640
3,480,640
3,2448,3264
3,480,640
3,480,640
3,480,640
3,480,640
3,153,204
3,240,320
3,1944,2592
3,1872,3952
3,480,640
3,480,640
3,480,640
3,480,640
3,480,640
3,240,320
3,480,640
3,240,320
3,240,320
3,1872,3952
3,480,640
3,480,640
3,480,640
3,480,640
3,480,640
3,480,640
3,480,640
3,480,640
3,480,640
3,480,640
3,240,320
3,240,320
3,480,640
3,480,640
3,2976,3968
3,480,640
3,240,320
3,480,640
3,480,640
3,1944,2592
3,480,640
3,480,640
3,2160,3840
3,480,640
3,480,640
3,480,640
3,240,320
3,2448,3264
3,240,320
3,480,640
3,480,640
3,240,320
3,480,640
3,480,640
3,480,640
3,480,640
3,480,640
3,480,640
3,240,320
3,480,640
3,480,640
3,1952,4128
3,240,320
3,480,640
3,240,320
3,480,640
3,480,640
3,480,640
3,2448,3264
3,3120,4160
3,480,640
3,1952,4128
3,480,640
3,480,640
3,480,640
3,480,640
3,480,640
3,480,640
3,480,640
3,480,640
3,480,640
3,240,320
3,3456,4608
3,480,640
3,204,153
3,480,640
3,480,640
3,1952,4128
3,480,640
3,240,320
3,480,640
3,240,320
3,240,320
3,240,320
3,240,320
3,480,640
3,480,640
3,480,640
3,480,640
3,480,640
3,480,640
3,480,640
3,240,320
3,204,153
3,480,640
3,240,320
3,480,640
3,480,640
3,480,640
3,480,640
3,480,640
3,240,320
3,2448,3264
3,480,640
3,240,320
3,240,320
3,480,640
3,480,640
3,240,320
3,240,320
3,480,640
3,480,640
3,1872,3952
3,480,640
3,480,640
3,240,320
3,480,640
3,480,640
3,240,320
3,480,640
3,480,640
3,240,320
3,480,640
3,480,640
3,480,640
3,480,640
3,480,640
3,480,640
3,480,640
3,480,640
3,480,640
3,240,320
3,480,640
3,480,640
3,480,640
3,480,640
3,240,320
3,480,640
3,240,320
3,480,640
3,240,320
3,480,640
3,144,256
3,480,640
3,480,640
3,240,320
3,480,640
3,480,640
3,480,640
3,204,153
3,240,320
3,480,640
3,480,640
3,480,640
3,1944,2592
3,2448,3264
3,240,320
3,240,320
3,1920,2560
3,240,320
3,480,640
3,480,640
3,480,640
3,1872,3952
3,240,320
3,240,320
3,480,640
3,480,640
3,240,320
3,480,640
3,480,640
3,480,640
3,480,640
3,480,640
3,240,320
3,480,640
3,240,320
3,480,640
3,480,640
3,240,320
3,240,320
3,480,640
3,2448,3264
3,480,640
3,1872,3952
3,480,640
3,480,640
3,480,640
3,480,640
3,204,153
3,240,320
3,1932,2576
3,480,640
3,240,320
3,480,640
3,480,640
3,480,640
3,480,640
3,480,640
3,480,640
3,240,320
3,480,640
3,480,640
3,480,640
3,480,640
3,480,640
3,480,640
3,480,640
3,480,640
3,480,640
3,480,640
3,480,640
3,480,640
3,480,640
3,1872,3952
3,480,640
3,240,320
3,240,320
3,480,640
3,480,640
3,3456,4608
3,480,640
3,480,640
3,1944,2592
3,480,640
3,480,640
3,240,320
3,480,640
3,1944,2592
3,1932,2576
3,480,640
3,1836,3264
3,480,640
3,1872,3952
3,240,320
3,480,640
3,480,640
3,480,640
3,240,320
3,240,320
3,480,640
3,1872,3952
3,480,640
3,1872,3952
3,240,320
3,240,320
3,480,640
3,480,640
3,153,204
3,480,640
3,480,640
3,480,640
3,2448,3264
3,480,640
3,3456,4608
3,480,640
3,2448,3264
3,480,640
3,1944,2592
3,240,320
3,480,640
3,144,256
3,240,320
3,240,320
3,240,320
3,480,640
3,480,640
3,480,640
3,480,640
3,480,640
3,480,640
3,480,640
3,480,640
3,2448,3264
3,240,320
3,480,640
3,480,640
3,240,320
3,240,320
3,240,320
3,2448,3264
3,1872,3952
3,480,640
3,2448,3264
3,240,320
3,480,640
3,480,640
3,240,320
3,480,640
3,1944,2592
3,480,640
3,480,640
3,1872,3952
3,2448,3264
3,480,640
3,480,640
3,480,640
3,480,640
3,480,640
3,1952,4128
3,240,320
3,480,640
3,480,640
3,480,640
3,480,640
3,1872,3952
3,480,640
3,480,640
3,480,640
3,480,640
3,2448,3264
3,480,640
3,3120,4160
3,240,320
3,480,640
3,480,640
3,2448,3264
3,240,320
3,2448,3264
3,480,640
3,240,320
3,2448,3264
3,480,640
3,1872,3952
3,1872,3952
3,240,320
3,480,640
3,240,320
3,480,640
3,480,640
3,240,320
3,240,320
3,480,640
3,480,640
3,480,640
3,480,640
3,480,640
3,240,320
3,480,640
3,240,320
3,480,640
3,480,640
3,480,640
3,2976,3968
3,480,640
3,480,640
3,240,320
3,480,640
3,480,640
3,480,640
3,480,640
3,480,640
3,480,640
3,480,640
3,1872,3952
3,480,640
3,480,640
3,1944,2592
3,240,320
3,240,320
3,480,640
3,480,640
3,1944,2592
3,480,640
3,480,640
3,480,640
3,1872,3952
3,480,640
3,480,640
3,240,320
3,480,640
3,480,640
3,480,640
3,480,640
3,480,640
3,480,640
3,480,640
3,480,640
3,480,640
3,240,320
3,480,640
3,3456,3456
3,480,640
3,240,320
3,240,320
3,480,640
3,480,640
3,240,320
3,480,640
3,480,640
3,240,320
3,240,320
3,2448,3264
3,240,320
3,240,320
3,240,320
3,480,640
3,480,640
3,240,320
3,480,640
3,480,640
3,480,640
3,240,320
3,480,640
3,3120,4160
3,480,640
3,480,640
3,240,320
3,480,640
3,240,320
3,480,640
3,240,320
3,1944,2592
3,240,320
3,3120,4160
3,480,640
3,240,320
3,480,640
3,2448,3264
3,480,640
3,1872,3952
3,480,640
3,480,640
3,240,320
3,480,640
3,480,640
3,240,320
3,480,640
3,480,640
3,480,640
3,480,640
3,480,640
3,480,640
3,480,640
3,480,640
3,480,640
3,1944,2592
3,1944,2592
3,1872,3952
3,480,640
3,240,320
3,240,320
3,480,640
3,240,320
3,240,320
3,480,640
3,480,640
3,480,640
3,480,640
3,240,320
3,480,640
3,480,640
3,480,640
3,1944,2592
3,480,640
3,240,320
3,480,640
3,1944,2592
3,2448,3264
3,480,640
3,480,640
3,480,640
3,480,640
3,240,320
3,480,640
3,1932,2576
3,480,640
3,480,640
3,480,640
3,240,320
3,480,640
3,480,640
3,240,320
3,480,640
3,480,640
3,480,640
3,480,640
3,480,640
3,1944,2592
3,1920,2560
3,1872,3952
3,240,320
3,240,320
3,480,640
3,240,320
3,240,320
3,480,640
3,480,640
3,480,640
3,480,640
3,240,320
3,480,640
3,240,320
3,480,640
3,480,640
3,1872,3952
3,480,640
3,2448,3264
3,240,320
3,480,640
3,2448,3264
3,240,320
3,480,640
3,240,320
3,480,640
3,480,640
3,240,320
3,240,320
3,240,320
3,480,640
3,2448,3264
3,2448,3264
3,480,640
3,480,640
3,480,640
3,480,640
3,480,640
3,1872,3952
3,240,320
3,480,640
3,480,640
3,1872,3952
3,240,320
3,1944,2592
3,480,640
3,240,320
3,480,640
3,480,640
3,153,204
3,240,320
3,3456,3456
3,480,640
3,240,320
3,480,640
3,480,640
3,480,640
3,480,640
3,480,640
3,480,640
3,240,320
3,480,640
3,240,320
3,480,640
3,240,320
3,240,320
3,480,640
3,480,640
3,1872,3952
3,2448,3264
3,240,320
3,240,320
3,144,256
3,480,640
3,1872,3952
3,480,640
3,480,640
3,3456,4608
3,2448,3264
3,480,640
3,480,640
3,1872,3952
3,480,640
3,1872,3952
3,240,320
3,480,640
3,480,640
3,480,640
3,240,320
3,480,640
3,480,640
3,480,640
3,480,640
3,480,640
3,480,640
3,480,640
3,240,320
3,3120,4160
3,3120,4160
3,480,640
3,3120,4160
3,480,640
3,480,640
3,480,640
3,1872,3952
3,480,640
3,480,640
3,480,640
3,480,640
3,480,640
3,480,640
3,240,320
3,153,204
3,480,640
3,480,640
3,480,640
3,480,640
3,480,640
3,1872,3952
3,480,640
3,480,640
3,480,640
3,240,320
3,480,640
3,480,640
3,480,640
3,480,640
3,240,320
3,240,320
3,480,640
3,480,640
3,480,640
3,240,320
3,480,640
3,480,640
3,320,240
3,480,640
3,320,240
3,480,640
3,3120,4160
3,480,640
3,1944,2592
3,480,640
3,1800,4000
3,240,320
3,480,640
3,480,640
3,2448,3264
3,2448,3264
3,480,640
3,240,320
3,480,640
3,480,640
3,3456,3456
3,480,640
3,480,640
3,240,320
3,240,320
3,480,640
3,480,640
3,1944,2592
3,240,320
3,480,640
3,2448,3264
3,240,320
3,480,640
3,480,640
3,480,640
3,240,320
3,480,640
3,2448,3264
3,1872,3952
3,480,640
3,240,320
3,240,320
3,480,640
3,480,640
3,240,320
3,2448,3264
3,240,320
3,480,640
3,480,640
3,240,320
3,480,640
3,480,640
3,480,640
3,480,640
3,1872,3952
3,480,640
3,480,640
3,480,640
3,240,320
3,240,320
3,480,640
3,240,320
3,480,640
3,240,320
3,480,640
3,1872,3952
3,480,640
3,480,640
3,240,320
3,1872,3952
3,2448,3264
3,480,640
3,480,640
3,3120,4160
3,480,640
3,2448,3264
3,1872,3952
3,204,153
3,480,640
3,240,320
3,480,640
3,240,320
3,480,640
3,480,640
3,240,320
3,240,320
3,480,640
3,480,640
3,240,320
3,2448,3264
3,3120,4160
3,480,640
3,480,640
3,480,640
3,480,640
3,2448,3264
3,480,640
3,2448,3264
3,480,640
3,480,640
3,480,640
3,1872,3952
3,480,640
3,480,640
3,480,640
3,480,640
3,2448,3264
3,240,320
3,480,640
3,240,320
3,480,640
3,480,640
3,480,640
3,480,640
3,480,640
3,480,640
3,480,640
3,480,640
3,240,320
3,480,640
3,480,640
3,240,320
3,480,640
3,480,640
3,480,640
3,240,320
3,2448,3264
3,480,640
3,240,320
3,480,640
3,480,640
3,3120,4160
3,2448,3264
3,480,640
3,1932,2576
3,480,640
3,480,640
3,240,320
3,2448,3264
3,480,640
3,480,640
3,204,153
3,3120,4160
3,480,640
3,240,320
3,2448,3264
3,480,640
3,2448,3264
3,480,640
3,240,320
3,1800,4000
3,480,640
3,2448,3264
3,480,640
3,480,640
3,240,320
3,480,640
3,480,640
3,480,640
3,240,320
3,480,640
3,3120,4160
3,480,640
3,240,320
3,240,320
3,1932,2576
3,240,320
3,480,640
3,240,320
3,480,640
3,480,640
3,480,640
3,480,640
3,480,640
3,480,640
3,480,640
3,240,320
3,480,640
3,480,640
3,240,320
3,480,640
3,240,320
3,480,640
3,480,640
3,240,320
3,2448,3264
3,2448,3264
3,480,640
3,480,640
3,480,640
3,480,640
3,3456,3456
3,480,640
3,480,640
3,480,640
3,240,320
3,480,640
3,480,640
3,260,195
3,480,640
3,1932,2576
3,1872,3952
3,240,320
3,1944,2592
3,480,640
3,240,320
3,480,640
3,240,320
3,480,640
3,240,320
3,480,640
3,480,640
3,480,640
3,480,640
3,240,320
3,240,320
3,480,640
3,480,640
3,480,640
3,240,320
3,480,640
3,480,640
3,1944,2592
3,480,640
3,480,640
3,480,640
3,240,320
3,480,640
3,480,640
3,480,640
3,480,640
3,480,640
3,240,320
3,240,320
3,480,640
3,480,640
3,2448,3264
3,204,153
3,480,640
3,480,640
3,480,640
3,240,320
3,480,640
3,480,640
3,480,640
3,480,640
3,480,640
3,480,640
3,480,640
3,3120,4160
3,240,320
3,480,640
3,480,640
3,240,320
3,1872,3952
3,2448,3264
3,480,640
3,480,640
3,240,320
3,3000,4000
3,1872,3952
3,240,320
3,240,320
3,240,320
3,1932,2576
3,480,640
3,480,640
3,480,640
3,240,320
3,240,320
3,240,320
3,2160,3840
3,240,320
3,480,640
3,480,640
3,480,640
3,2976,3968
3,480,640
3,240,320
3,240,320
3,3120,4160
3,480,640
3,1872,3952
3,240,320
3,240,320
3,480,640
3,240,320
3,240,320
3,480,640
3,204,153
3,480,640
3,240,320
3,240,320
3,480,640
3,480,640
3,480,640
3,480,640
3,480,640
3,480,640
3,480,640
3,240,320
3,240,320
3,480,640
3,240,320
3,480,640
3,480,640
3,1872,3952
3,480,640
3,480,640
3,480,640
3,480,640
3,480,640
3,480,640
3,480,640
3,480,640
3,240,320
3,480,640
3,480,640
3,480,640
3,240,320
3,480,640
3,240,320
3,480,640
3,480,640
3,480,640
3,240,320
3,480,640
3,480,640
3,480,640
3,480,640
3,480,640
3,480,640
3,480,640
3,480,640
3,2448,3264
3,480,640
3,240,320
3,1872,3952
3,240,320
3,480,640
3,480,640
3,240,320
3,480,640
3,480,640
3,480,640
3,480,640
3,480,640
3,480,640
3,3120,4160
3,480,640
3,2448,3264
3,480,640
3,1872,3952
3,153,204
3,480,640
3,480,640
3,480,640
3,480,640
3,480,640
3,480,640
3,480,640
3,480,640
3,1872,3952
3,480,640
3,480,640
3,480,640
3,480,640
3,480,640
3,2448,3264
3,480,640
3,480,640
3,480,640
3,480,640
3,2448,3264
3,480,640
3,480,640
3,1872,3952
3,480,640
3,480,640
3,480,640
3,2448,3264
3,480,640
3,480,640
3,480,640
3,240,320
3,2448,3264
3,480,640
3,1944,2592
3,480,640
3,480,640
3,240,320
3,480,640
3,480,640
3,240,320
3,480,640
3,240,320
3,240,320
3,480,640
3,3120,4160
3,480,640
3,2448,3264
3,480,640
3,2448,3264
3,480,640
3,204,153
3,480,640
3,3456,3456
3,480,640
3,480,640
3,2448,3264
3,2448,3264
3,480,640
3,2448,3264
3,480,640
3,480,640
3,480,640
3,480,640
3,480,640
3,240,320
3,153,204
3,480,640
3,480,640
3,480,640
3,480,640
3,480,640
3,240,320
3,480,640
3,240,320
3,2448,3264
3,480,640
3,480,640
3,480,640
3,480,640
3,480,640
3,480,640
3,480,640
3,480,640
3,480,640
3,480,640
3,240,320
3,240,320
3,480,640
3,480,640
3,480,640
3,480,640
3,240,320
3,204,153
3,480,640
3,480,640
3,480,640
3,1872,3952
3,480,640
3,480,640
3,240,320
3,1872,3952
3,2448,3264
3,480,640
3,480,640
3,480,640
3,480,640
3,240,320
3,480,640
3,480,640
3,480,640
3,240,320
3,2448,3264
3,480,640
3,480,640
3,480,640
3,480,640
3,240,320
3,480,640
3,480,640
3,480,640
3,480,640
3,240,320
3,480,640
3,1872,3952
3,480,640
3,480,640
3,480,640
3,480,640
3,480,640
3,240,320
3,240,320
3,480,640
3,1872,3952
3,480,640
3,480,640
3,480,640
3,480,640
3,480,640
3,1872,3952
3,480,640
3,480,640
3,480,640
3,1872,3952
3,240,320
3,1944,2592
3,480,640
3,480,640
3,480,640
3,240,320
3,240,320
3,480,640
3,480,640
3,240,320
3,144,256
3,240,320
3,480,640
3,240,320
3,240,320
3,480,640
3,480,640
3,480,640
3,1932,2576
3,240,320
3,2448,3264
3,240,320
3,240,320
3,240,320
3,480,640
3,240,320
3,480,640
3,240,320
3,480,640
3,204,153
3,480,640
3,480,640
3,480,640
3,480,640
3,480,640
3,1872,3952
3,480,640
3,2160,3840
3,480,640
3,1872,3952
3,480,640
3,480,640
3,1872,3952
3,240,320
3,480,640
3,480,640
3,1944,2592
3,480,640
3,480,640
3,480,640
3,480,640
3,480,640
3,260,195
3,480,640
3,480,640
3,480,640
3,480,640
3,480,640
3,480,640
3,480,640
3,480,640
3,480,640
3,480,640
3,480,640
3,480,640
3,480,640
3,144,256
3,1872,3952
3,480,640
3,480,640
3,204,153
3,480,640
3,480,640
3,480,640
3,480,640
3,240,320
3,240,320
3,3120,4160
3,480,640
3,480,640
3,204,153
3,1944,2592
3,240,320
3,240,320
3,480,640
3,240,320
3,480,640
3,480,640
3,480,640
3,480,640
3,240,320
3,1872,3952
3,480,640
3,480,640
3,480,640
3,2448,3264
3,480,640
3,1944,2592
3,480,640
3,2448,3264
3,480,640
3,240,320
3,3456,4608
3,240,320
3,480,640
3,480,640
3,480,640
3,480,640
3,480,640
3,240,320
3,3120,4160
3,195,260
3,480,640
3,480,640
3,240,320
3,480,640
3,480,640
3,1872,3952
3,480,640
3,240,320
3,480,640
3,480,640
3,2160,3840
3,240,320
3,1872,3952
3,240,320
3,480,640
3,2160,3840
3,1872,3952
3,480,640
3,480,640
3,480,640
3,480,640
3,480,640
3,1932,2576
3,240,320
3,3120,4160
3,480,640
3,480,640
3,480,640
3,480,640
3,480,640
3,240,320
3,480,640
3,240,320
3,240,320
3,240,320
3,480,640
3,480,640
3,1952,4128
3,2448,3264
3,480,640
3,480,640
3,480,640
3,480,640
3,480,640
3,480,640
3,480,640
3,480,640
3,240,320
3,2448,3264
3,1932,2576
3,480,640
3,480,640
3,480,640
3,480,640
3,480,640
3,480,640
3,480,640
3,480,640
3,480,640
3,240,320
3,480,640
3,1952,4128
3,240,320
3,240,320
3,480,640
3,240,320
3,240,320
3,480,640
3,240,320
3,480,640
3,480,640
3,480,640
3,240,320
3,480,640
3,480,640
3,480,640
3,204,153
3,480,640
3,480,640
3,480,640
3,480,640
3,480,640
3,1872,3952
3,1872,3952
3,480,640
3,480,640
3,480,640
3,480,640
3,240,320
3,480,640
3,240,320
3,153,204
3,2448,3264
3,480,640
3,480,640
3,480,640
3,240,320
3,2976,3968
3,480,640
3,480,640
3,480,640
3,2448,3264
3,1872,3952
3,480,640
3,480,640
3,480,640
3,3120,4160
3,480,640
3,480,640
3,240,320
3,480,640
3,480,640
3,204,153
3,480,640
3,480,640
3,480,640
3,480,640
3,240,320
3,480,640
3,480,640
3,1872,3952
3,240,320
3,480,640
3,480,640
3,480,640
3,480,640
3,3120,4160
3,2448,3264
3,240,320
3,2448,3264
3,480,640
3,480,640
3,1872,3952
3,480,640
3,480,640
3,240,320
3,240,320
3,2976,3968
3,480,640
3,480,640
3,480,640
3,240,320
3,480,640
3,480,640
3,3456,4608
3,480,640
3,480,640
3,480,640
3,480,640
3,240,320
3,480,640
3,2448,3264
3,240,320
3,480,640
3,480,640
3,240,320
3,480,640
3,3120,4160
3,480,640
3,240,320
3,480,640
3,1872,3952
3,240,320
3,2448,3264
3,480,640
3,240,320
3,240,320
3,240,320
3,240,320
3,240,320
3,240,320
3,480,640
3,480,640
3,480,640
3,480,640
3,480,640
3,2448,3264
3,2160,3840
3,240,320
3,480,640
3,2448,3264
3,240,320
3,2448,3264
3,240,320
3,240,320
3,240,320
3,240,320
3,480,640
3,480,640
3,480,640
3,480,640
3,240,320
3,480,640
3,480,640
3,480,640
3,480,640
3,240,320
3,240,320
3,3120,4160
3,480,640
3,480,640
3,480,640
3,480,640
3,480,640
3,480,640
3,240,320
3,240,320
3,480,640
3,240,320
3,480,640
3,480,640
3,480,640
3,480,640
3,1872,3952
3,240,320
3,480,640
3,240,320
3,480,640
3,2448,3264
3,480,640
3,480,640
3,204,153
3,480,640
3,480,640
3,480,640
3,480,640
3,1944,2592
3,480,640
3,1872,3952
3,240,320
3,480,640
3,480,640
3,480,640
3,240,320
3,480,640
3,480,640
3,240,320
3,480,640
3,240,320
3,480,640
3,240,320
3,2448,3264
3,480,640
3,480,640
3,240,320
3,480,640
3,2448,3264
3,1952,4128
3,1872,3952
3,480,640
3,204,153
3,480,640
3,1872,3952
3,240,320
3,2448,3264
3,480,640
3,480,640
3,480,640
3,144,256
3,240,320
3,480,640
3,240,320
3,480,640
3,480,640
3,2448,3264
3,480,640
3,1944,2592
3,240,320
3,240,320
3,240,320
3,1872,3952
3,1872,3952
3,480,640
3,480,640
3,480,640
3,480,640
3,1952,4128
3,2448,3264
3,480,640
3,1872,3952
3,3456,4608
3,240,320
3,480,640
3,240,320
3,1872,3952
3,480,640
3,480,640
3,480,640
3,240,320
3,480,640
3,480,640
3,480,640
3,480,640
3,480,640
3,480,640
3,240,320
3,2448,3264
3,480,640
3,240,320
3,480,640
3,240,320
3,480,640
3,2448,3264
3,240,320
3,480,640
3,480,640
3,480,640
3,240,320
3,1872,3952
3,240,320
3,240,320
3,480,640
3,240,320
3,480,640
3,1872,3952
3,260,195
3,240,320
3,480,640
3,480,640
3,1944,2592
3,204,153
3,480,640
3,480,640
3,480,640
3,480,640
3,480,640
3,480,640
3,480,640
3,480,640
3,240,320
3,1872,3952
3,480,640
3,480,640
3,240,320
3,480,640
3,240,320
3,480,640
3,480,640
3,480,640
3,480,640
3,480,640
3,480,640
3,480,640
3,3120,4160
3,480,640
3,240,320
3,2448,3264
3,480,640
3,1932,2576
3,480,640
3,1944,2592
3,240,320
3,2448,3264
3,480,640
3,240,320
3,480,640
3,480,640
3,480,640
3,1872,3952
3,480,640
3,1944,2592
3,480,640
3,240,320
3,480,640
3,480,640
3,480,640
3,480,640
3,240,320
3,1872,3952
3,480,640
3,480,640
3,240,320
3,480,640
3,1872,3952
3,2448,3264
3,240,320
3,480,640
3,240,320
3,480,640
3,480,640
3,480,640
3,240,320
3,480,640
3,1944,2592
3,2448,3264
3,480,640
3,204,153
3,240,320
3,480,640
3,480,640
3,2448,3264
3,2448,3264
3,240,320
3,2448,3264
3,480,640
3,240,320
3,240,320
3,480,640
3,480,640
3,480,640
3,240,320
3,240,320
3,1944,2592
3,240,320
3,240,320
3,1944,2592
3,480,640
3,480,640
3,480,640
3,480,640
3,480,640
3,240,320
3,480,640
3,3120,4160
3,240,320
3,2448,3264
3,480,640
3,480,640
3,480,640
3,240,320
3,480,640
3,480,640
3,480,640
3,2448,3264
3,1872,3952
3,480,640
3,240,320
3,480,640
3,480,640
3,480,640
3,480,640
3,1872,3952
3,480,640
3,480,640
3,480,640
3,480,640
3,480,640
3,480,640
3,480,640
3,480,640
3,240,320
3,1872,3952
3,480,640
3,240,320
3,480,640
3,480,640
3,480,640
3,240,320
3,480,640
3,240,320
3,480,640
3,240,320
3,240,320
3,480,640
3,480,640
3,480,640
3,480,640
3,240,320
3,2448,3264
3,2976,3968
3,480,640
3,480,640
3,1872,3952
3,480,640
3,480,640
3,240,320
3,240,320
3,480,640
3,2448,3264
3,240,320
3,480,640
3,240,320
3,480,640
3,240,320
3,480,640
3,480,640
3,2448,3264
3,480,640
3,240,320
3,480,640
3,480,640
3,240,320
3,240,320
3,480,640
3,480,640
3,1872,3952
3,480,640
3,480,640
3,1944,2592
3,480,640
3,3120,4160
3,480,640
3,480,640
3,480,640
3,1872,3952
3,480,640
3,2448,3264
3,3120,4160
3,480,640
3,480,640
3,240,320
3,240,320
3,240,320
3,480,640
3,240,320
3,480,640
3,1800,4000
3,480,640
3,480,640
3,480,640
3,480,640
3,240,320
3,3120,4160
3,480,640
3,480,640
3,102,204
3,240,320
3,480,640
3,320,240
3,480,640
3,480,640
3,240,320
3,480,640
3,480,640
3,2448,3264
3,240,320
3,480,640
3,480,640
3,480,640
3,240,320
3,240,320
3,2448,3264
3,480,640
3,480,640
3,480,640
3,204,153
3,480,640
3,480,640
3,3120,4160
3,2448,3264
3,480,640
3,1872,3952
3,1944,2592
3,480,640
3,480,640
3,480,640
3,240,320
3,480,640
3,240,320
3,240,320
3,480,640
3,480,640
3,480,640
3,480,640
3,480,640
3,2448,3264
3,240,320
3,480,640
3,195,260
3,480,640
3,1932,2576
3,480,640
3,240,320
3,480,640
3,240,320
3,480,640
3,480,640
3,480,640
3,1932,2576
3,240,320
3,480,640
3,240,320
3,480,640
3,480,640
3,480,640
3,480,640
3,3120,4160
3,240,320
3,2448,3264
3,480,640
3,240,320
3,480,640
3,240,320
3,480,640
3,480,640
3,1872,4160
3,480,640
3,480,640
3,1872,3952
3,240,320
3,480,640
3,240,320
3,480,640
3,480,640
3,480,640
3,1872,3952
3,240,320
3,480,640
3,480,640
3,480,640
3,480,640
3,240,320
3,480,640
3,1952,4128
3,240,320
3,1872,3952
3,240,320
3,240,320
3,240,320
3,1872,3952
3,480,640
3,480,640
3,480,640
3,480,640
3,1872,3952
3,1872,3952
3,480,640
3,240,320
3,480,640
3,240,320
3,240,320
3,480,640
3,480,640
3,240,320
3,240,320
3,480,640
3,204,153
3,480,640
3,480,640
3,240,320
3,1872,4160
3,480,640
3,480,640
3,480,640
3,240,320
3,480,640
3,240,320
3,480,640
3,480,640
3,480,640
3,480,640
3,480,640
3,240,320
3,240,320
3,480,640
3,480,640
3,240,320
3,204,153
3,240,320
3,240,320
3,1944,2592
3,480,640
3,480,640
3,240,320
3,480,640
3,480,640
3,480,640
3,480,640
3,480,640
3,480,640
3,480,640
3,480,640
3,240,320
3,480,640
3,480,640
3,480,640
3,480,640
3,480,640
3,204,153
3,480,640
3,480,640
3,2448,3264
3,1872,3952
3,240,320
3,2448,3264
3,240,320
3,240,320
3,480,640
3,204,153
3,480,640
3,240,320
3,480,640
3,480,640
3,480,640
3,480,640
3,480,640
3,480,640
3,240,320
3,480,640
3,480,640
3,240,320
3,480,640
3,240,320
3,240,320
3,480,640
3,1872,3952
3,480,640
3,240,320
3,480,640
3,480,640
3,1872,3952
3,240,320
3,2448,3264
3,1944,2592
3,240,320
3,2448,3264
3,480,640
3,240,320
3,480,640
3,480,640
3,480,640
3,1872,3952
3,1944,2592
3,240,320
3,480,640
3,240,320
3,480,640
3,480,640
3,480,640
3,480,640
3,240,320
3,240,320
3,2448,3264
3,240,320
3,480,640
3,480,640
3,480,640
3,480,640
3,480,640
3,240,320
3,240,320
3,480,640
3,240,320
3,480,640
3,1872,3952
3,480,640
3,480,640
3,240,320
3,480,640
3,480,640
3,240,320
3,1944,2592
3,480,640
3,480,640
3,240,320
3,480,640
3,480,640
3,240,320
3,3120,4160
3,1872,3952
3,480,640
3,480,640
3,480,640
3,480,640
3,480,640
3,480,640
3,1872,3952
3,480,640
3,480,640
3,480,640
3,480,640
3,240,320
3,3456,4608
3,480,640
3,480,640
3,240,320
3,480,640
3,480,640
3,240,320
3,260,195
3,480,640
3,3120,4160
3,480,640
3,2448,3264
3,3120,4160
3,480,640
3,480,640
3,480,640
3,480,640
3,480,640
3,2448,3264
3,480,640
3,1944,2592
3,480,640
3,480,640
3,480,640
3,480,640
3,480,640
3,240,320
3,240,320
3,480,640
3,240,320
3,1872,3952
3,480,640
3,480,640
3,480,640
3,240,320
3,480,640
3,480,640
3,480,640
3,1872,3952
3,480,640
3,480,640
3,480,640
3,480,640
3,1944,2592
3,240,320
3,480,640
3,240,320
3,480,640
3,480,640
3,3120,4160
3,240,320
3,480,640
3,480,640
3,480,640
3,2448,3264
3,480,640
3,480,640
3,480,640
3,240,320
3,240,320
3,480,640
3,240,320
3,480,640
3,240,320
3,480,640
3,240,320
3,2448,3264
3,240,320
3,480,640
3,480,640
3,480,640
3,2448,3264
3,240,320
3,2448,3264
3,480,640
3,1872,3952
3,480,640
3,240,320
3,1944,2592
3,480,640
3,480,640
3,186,248
3,2448,3264
3,3120,4160
3,240,320
3,2976,3968
3,480,640
3,1872,3952
3,1872,3952
3,240,320
3,480,640
3,480,640
3,2448,3264
3,240,320
3,240,320
3,480,640
3,1872,3952
3,240,320
3,480,640
3,240,320
3,2448,3264
3,2448,3264
3,2448,3264
3,240,320
3,204,153
3,480,640
3,2448,3264
3,480,640
3,1872,3952
3,480,640
3,480,640
3,480,640
3,240,320
3,480,640
3,480,640
3,480,640
3,2160,3840
3,480,640
3,240,320
3,1872,3952
3,480,640
3,480,640
3,480,640
3,480,640
3,480,640
3,480,640
3,240,320
3,240,320
3,480,640
3,480,640
3,2448,3264
3,240,320
3,480,640
3,480,640
3,240,320
3,2448,3264
3,480,640
3,240,320
3,240,320
3,240,320
3,240,320
3,240,320
3,480,640
3,240,320
3,240,320
3,480,640
3,480,640
3,480,640
3,240,320
3,240,320
3,240,320
3,480,640
3,480,640
3,240,320
3,240,320
3,480,640
3,480,640
3,480,640
3,480,640
3,1872,3952
3,240,320
3,240,320
3,1872,3952
3,240,320
3,240,320
3,480,640
3,480,640
3,480,640
3,240,320
3,480,640
3,2448,3264
3,240,320
3,480,640
3,480,640
3,480,640
3,480,640
3,480,640
3,240,320
3,480,640
3,1944,2592
3,480,640
3,480,640
3,240,320
3,240,320
3,240,320
3,480,640
3,2448,3264
3,480,640
3,480,640
3,480,640
3,240,320
3,480,640
3,240,320
3,240,320
3,480,640
3,240,320
3,480,640
3,480,640
3,480,640
3,480,640
3,162,122
3,1872,3952
3,480,640
3,480,640
3,480,640
3,480,640
3,2976,3968
3,480,640
3,3120,4160
3,1872,4160
3,480,640
3,3456,3456
3,3120,4160
3,480,640
3,240,320
3,240,320
3,480,640
3,240,320
3,240,320
3,1872,3952
3,480,640
3,480,640
3,240,320
3,480,640
3,240,320
3,2448,3264
3,240,320
3,480,640
3,2448,3264
3,480,640
3,480,640
3,480,640
3,240,320
3,480,640
3,480,640
3,480,640
3,240,320
3,2448,3264
3,240,320
3,480,640
3,320,240
3,480,640
3,480,640
3,240,320
3,240,320
3,480,640
3,240,320
3,480,640
3,480,640
3,240,320
3,320,240
3,480,640
3,240,320
3,480,640
3,480,640
3,480,640
3,1872,3952
3,480,640
3,240,320
3,240,320
3,480,640
3,240,320
3,2448,3264
3,240,320
3,240,320
3,204,153
3,480,640
3,480,640
3,240,320
3,2448,3264
3,480,640
3,480,640
3,240,320
3,480,640
3,1872,3952
3,240,320
3,240,320
3,240,320
3,2160,3840
3,240,320
3,240,320
3,194,194
3,1872,3952
3,480,640
3,480,640
3,240,320
3,240,320
3,480,640
3,480,640
3,480,640
3,2448,3264
3,240,320
3,480,640
3,240,320
3,240,320
3,480,640
3,480,640
3,480,640
3,480,640
3,240,320
3,3120,4160
3,480,640
3,480,640
3,480,640
3,480,640
3,480,640
3,480,640
3,1872,3952
3,480,640
3,240,320
3,480,640
3,1932,2576
3,480,640
3,240,320
3,480,640
3,1872,3952
3,480,640
3,240,320
3,480,640
3,480,640
3,480,640
3,480,640
3,480,640
3,480,640
3,2448,3264
3,240,320
3,1944,2592
3,240,320
3,480,640
3,2448,3264
3,480,640
3,480,640
3,240,320
3,204,153
3,480,640
3,480,640
3,480,640
3,480,640
3,2448,3264
3,480,640
3,480,640
3,480,640
3,3120,4160
3,2448,3264
3,240,320
3,1872,3952
3,480,640
3,480,640
3,144,256
3,480,640
3,480,640
3,240,320
3,480,640
3,240,320
3,240,320
3,480,640
3,480,640
3,1872,3952
3,240,320
3,1872,3952
3,240,320
3,240,320
3,480,640
3,480,640
3,480,640
3,3120,4160
3,204,153
3,480,640
3,2448,3264
3,240,320
3,480,640
3,240,320
3,240,320
3,480,640
3,2448,3264
3,240,320
3,102,204
3,480,640
3,480,640
3,240,320
3,480,640
3,480,640
3,240,320
3,240,320
3,480,640
3,240,320
3,2448,3264
3,1952,4128
3,480,640
3,240,320
3,480,640
3,153,204
3,480,640
3,3120,4160
3,3456,3456
3,480,640
3,480,640
3,2448,3264
3,240,320
3,480,640
3,480,640
3,480,640
3,240,320
3,480,640
3,480,640
3,240,320
3,480,640
3,3120,4160
3,480,640
3,480,640
3,480,640
3,240,320
3,240,320
3,240,320
3,1872,3952
3,480,640
3,480,640
3,480,640
3,1944,2592
3,480,640
3,240,320
3,480,640
3,480,640
3,240,320
3,240,320
3,2448,3264
3,480,640
3,240,320
3,480,640
3,240,320
3,240,320
3,480,640
3,480,640
3,480,640
3,480,640
3,480,640
3,240,320
3,480,640
3,1872,3952
3,480,640
3,480,640
3,480,640
3,144,256
3,480,640
3,480,640
3,480,640
3,240,320
3,2448,3264
3,480,640
3,480,640
3,480,640
3,480,640
3,480,640
3,480,640
3,480,640
3,1872,3952
3,240,320
3,480,640
3,240,320
3,480,640
3,1872,3952
3,480,640
3,204,153
3,1872,3952
3,240,320
3,480,640
3,480,640
3,1872,3952
3,480,640
3,480,640
3,3120,4160
3,3120,4160
3,480,640
3,240,320
3,480,640
3,480,640
3,480,640
3,480,640
3,480,640
3,480,640
3,1872,3952
3,480,640
3,240,320
3,480,640
3,480,640
3,480,640
3,1932,2576
3,240,320
3,240,320
3,240,320
3,240,320
3,480,640
3,1872,3952
3,1872,3952
3,480,640
3,480,640
3,480,640
3,240,320
3,480,640
3,240,320
3,480,640
3,1872,3952
3,480,640
3,480,640
3,240,320
3,480,640
3,3120,4160
3,480,640
3,240,320
3,480,640
3,3120,4160
3,480,640
3,480,640
3,480,640
3,240,320
3,480,640
3,480,640
3,240,320
3,240,320
3,480,640
3,480,640
3,480,640
3,480,640
3,240,320
3,480,640
3,2448,3264
3,480,640
3,480,640
3,1872,3952
3,480,640
3,480,640
3,480,640
3,480,640
3,480,640
3,480,640
3,480,640
3,480,640
3,240,320
3,2448,3264
3,1920,2560
3,240,320
3,240,320
3,480,640
3,2448,3264
3,480,640
3,480,640
3,2448,3264
3,480,640
3,480,640
3,480,640
3,480,640
3,240,320
3,195,260
3,480,640
3,240,320
3,240,320
3,480,640
3,240,320
3,480,640
3,480,640
3,480,640
3,240,320
3,240,320
3,480,640
3,204,153
3,480,640
3,480,640
3,480,640
3,480,640
3,2160,3840
3,480,640
3,240,320
3,480,640
3,480,640
3,480,640
3,480,640
3,480,640
3,248,186
3,480,640
3,480,640
3,480,640
3,1952,4128
3,480,640
3,480,640
3,480,640
3,240,320
3,480,640
3,1872,3952
3,240,320
3,240,320
3,480,640
3,240,320
3,240,320
3,240,320
3,480,640
3,240,320
3,480,640
3,480,640
3,480,640
3,480,640
3,480,640
3,480,640
3,2448,3264
3,480,640
3,240,320
3,480,640
3,240,320
3,240,320
3,195,260
3,2448,3264
3,480,640
3,240,320
3,1944,2592
3,240,320
3,480,640
3,240,320
3,480,640
3,480,640
3,480,640
3,480,640
3,480,640
3,240,320
3,240,320
3,480,640
3,480,640
3,1872,3952
3,480,640
3,1872,3952
3,240,320
3,2160,3840
3,480,640
3,240,320
3,480,640
3,186,248
3,480,640
3,480,640
3,480,640
3,480,640
3,480,640
3,2448,3264
3,240,320
3,3120,4160
3,480,640
3,480,640
3,240,320
3,240,320
3,2448,3264
3,240,320
3,480,640
3,480,640
3,240,320
3,480,640
3,480,640
3,480,640
3,480,640
3,480,640
3,480,640
3,2448,3264
3,3120,4160
3,480,640
3,480,640
3,480,640
3,240,320
3,2448,3264
3,480,640
3,2448,3264
3,480,640
3,480,640
3,480,640
3,1872,3952
3,480,640
3,480,640
3,1872,3952
3,480,640
3,240,320
3,240,320
3,240,320
3,480,640
3,480,640
3,480,640
3,2448,3264
3,480,640
3,240,320
3,480,640
3,480,640
3,480,640
3,480,640
3,480,640
3,240,320
3,480,640
3,2448,3264
3,3120,4160
3,1872,3952
3,480,640
3,480,640
3,480,640
3,2448,3264
3,240,320
3,240,320
3,240,320
3,480,640
3,480,640
3,240,320
3,480,640
3,240,320
3,480,640
3,480,640
3,1944,2592
3,1872,3952
3,153,204
3,480,640
3,240,320
3,480,640
3,480,640
3,480,640
3,240,320
3,240,320
3,480,640
3,480,640
3,1872,3952
3,480,640
3,480,640
3,480,640
3,480,640
3,480,640
3,120,160
3,1944,2592
3,480,640
3,204,153
3,480,640
3,480,640
3,2448,3264
3,240,320
3,3120,4160
3,480,640
3,480,640
3,480,640
3,480,640
3,480,640
3,1872,3952
3,480,640
3,480,640
3,480,640
3,2448,3264
3,480,640
3,480,640
3,1944,2592
3,240,320
3,1872,3952
3,480,640
3,3120,4160
3,480,640
3,240,320
3,480,640
3,480,640
3,2448,3264
3,1872,3952
3,3456,3456
3,480,640
3,480,640
3,480,640
3,480,640
3,480,640
3,240,320
3,240,320
3,480,640
3,480,640
3,3120,4160
3,2448,3264
3,480,640
3,480,640
3,480,640
3,480,640
3,240,320
3,3120,4160
3,2448,3264
3,240,320
3,480,640
3,480,640
3,480,640
3,480,640
3,240,320
3,480,640
3,480,640
3,480,640
3,480,640
3,480,640
3,480,640
3,480,640
3,144,256
3,480,640
3,2448,3264
3,480,640
3,240,320
3,240,320
3,480,640
3,480,640
3,480,640
3,480,640
3,480,640
3,480,640
3,480,640
3,480,640
3,480,640
3,240,320
3,2448,3264
3,480,640
3,1872,3952
3,240,320
3,153,204
3,240,320
3,480,640
3,240,320
3,480,640
3,1932,2576
3,240,320
3,3120,4160
3,480,640
3,240,320
3,480,640
3,3120,4160
3,480,640
3,480,640
3,204,153
3,480,640
3,480,640
3,240,320
3,480,640
3,240,320
3,1872,3952
3,240,320
3,480,640
3,1872,3952
3,480,640
3,480,640
3,3120,4160
3,240,320
3,480,640
3,240,320
3,480,640
3,480,640
3,480,640
3,480,640
3,480,640
3,480,640
3,3456,4608
3,480,640
3,240,320
3,480,640
3,240,320
3,480,640
3,1944,2592
3,480,640
3,480,640
3,1944,2592
3,1872,3952
3,480,640
3,480,640
3,480,640
3,240,320
3,480,640
3,240,320
3,240,320
3,480,640
3,1952,4128
3,240,320
3,2448,3264
3,480,640
3,480,640
3,240,320
3,204,153
3,480,640
3,2448,3264
3,240,320
3,480,640
3,1872,3952
3,240,320
3,480,640
3,480,640
3,480,640
3,480,640
3,1872,3952
3,480,640
3,480,640
3,480,640
3,480,640
3,480,640
3,240,320
3,240,320
3,240,320
3,480,640
3,480,640
3,240,320
3,2448,3264
3,480,640
3,480,640
3,3120,4160
3,1872,3952
3,1872,3952
3,240,320
3,1872,3952
3,480,640
3,480,640
3,240,320
3,480,640
3,2448,3264
3,480,640
3,480,640
3,480,640
3,240,320
3,480,640
3,480,640
3,2448,3264
3,240,320
3,240,320
3,480,640
3,480,640
3,3120,4160
3,240,320
3,1944,2592
3,480,640
3,480,640
3,480,640
3,480,640
3,480,640
3,1872,3952
3,480,640
3,240,320
3,1944,2592
3,2448,3264
3,480,640
3,480,640
3,480,640
3,480,640
3,2448,3264
3,480,640
3,480,640
3,480,640
3,3120,4160
3,480,640
3,480,640
3,2448,3264
3,480,640
3,480,640
3,240,320
3,240,320
3,480,640
3,480,640
3,480,640
3,240,320
3,480,640
3,240,320
3,480,640
3,240,320
3,2160,3840
3,1872,3952
3,480,640
3,2448,3264
3,480,640
3,480,640
3,240,320
3,480,640
3,480,640
3,480,640
3,480,640
3,480,640
3,480,640
3,480,640
3,480,640
3,480,640
3,480,640
3,480,640
3,480,640
3,480,640
3,480,640
3,480,640
3,3456,4608
3,480,640
3,480,640
3,480,640
3,480,640
3,240,320
3,240,320
3,480,640
3,240,320
3,480,640
3,240,320
3,480,640
3,1872,3952
3,480,640
3,240,320
3,480,640
3,240,320
3,480,640
3,480,640
3,240,320
3,480,640
3,240,320
3,480,640
3,240,320
3,240,320
3,480,640
3,480,640
3,240,320
3,480,640
3,480,640
3,240,320
3,480,640
3,240,320
3,480,640
3,240,320
3,240,320
3,480,640
3,480,640
3,240,320
3,480,640
3,480,640
3,480,640
3,240,320
3,2448,3264
3,240,320
3,480,640
3,480,640
3,480,640
3,480,640
3,480,640
3,240,320
3,480,640
3,240,320
3,480,640
3,480,640
3,240,320
3,480,640
3,480,640
3,480,640
3,1952,4128
3,480,640
3,240,320
3,480,640
3,240,320
3,480,640
3,480,640
3,480,640
3,240,320
3,240,320
3,2448,3264
3,480,640
3,480,640
3,480,640
3,2448,3264
3,240,320
3,480,640
3,240,320
3,480,640
3,2448,3264
3,480,640
3,2448,3264
3,240,320
3,2448,3264
3,480,640
3,480,640
3,240,320
3,240,320
3,480,640
3,480,640
3,2448,3264
3,480,640
3,480,640
3,480,640
3,240,320
3,2448,3264
3,480,640
3,480,640
3,240,320
3,480,640
3,480,640
3,3120,4160
3,480,640
3,480,640
3,480,640
3,480,640
3,480,640
3,480,640
3,480,640
3,1872,3952
3,3120,4160
3,480,640
3,480,640
3,1872,3952
3,480,640
3,240,320
3,480,640
3,480,640
3,240,320
3,240,320
3,480,640
3,240,320
3,480,640
3,480,640
3,240,320
3,240,320
3,480,640
3,480,640
3,480,640
3,480,640
3,240,320
3,480,640
3,480,640
3,240,320
3,480,640
3,204,153
3,240,320
3,480,640
3,240,320
3,480,640
3,240,320
3,480,640
3,480,640
3,240,320
3,1944,2592
3,240,320
3,480,640
3,240,320
3,240,320
3,2448,3264
3,240,320
3,480,640
3,480,640
3,240,320
3,480,640
3,240,320
3,240,320
3,480,640
3,480,640
3,480,640
3,240,320
3,3120,4160
3,480,640
3,480,640
3,240,320
3,240,320
3,480,640
3,480,640
3,2448,3264
3,2448,3264
3,480,640
3,240,320
3,240,320
3,480,640
3,240,320
3,240,320
3,480,640
3,240,320
3,480,640
3,480,640
3,480,640
3,240,320
3,1872,3952
3,2448,3264
3,480,640
3,480,640
3,480,640
3,480,640
3,480,640
3,480,640
3,480,640
3,480,640
3,480,640
3,2448,3264
3,480,640
3,480,640
3,240,320
3,480,640
3,480,640
3,480,640
3,4160,3120
3,480,640
3,240,320
3,480,640
3,480,640
3,480,640
3,480,640
3,240,320
3,480,640
3,480,640
3,480,640
3,480,640
3,240,320
3,240,320
3,480,640
3,2448,3264
3,240,320
3,480,640
3,480,640
3,240,320
3,1944,2592
3,480,640
3,1872,3952
3,2448,3264
3,480,640
3,480,640
3,480,640
3,480,640
3,480,640
3,480,640
3,480,640
3,194,194
3,480,640
3,480,640
3,240,320
3,3120,4160
3,480,640
3,480,640
3,240,320
3,153,204
3,480,640
3,480,640
3,480,640
3,1836,3264
3,240,320
3,480,640
3,480,640
3,480,640
3,240,320
3,480,640
3,480,640
3,480,640
3,480,640
3,480,640
3,480,640
3,480,640
3,480,640
3,240,320
3,480,640
3,3456,4608
3,480,640
3,240,320
3,240,320
3,204,153
3,240,320
3,240,320
3,480,640
3,240,320
3,480,640
3,480,640
3,240,320
3,240,320
3,480,640
3,480,640
3,480,640
3,240,320
3,480,640
3,480,640
3,480,640
3,480,640
3,204,153
3,480,640
3,1872,3952
3,480,640
3,240,320
3,480,640
3,480,640
3,480,640
3,240,320
3,480,640
3,240,320
3,240,320
3,480,640
3,2448,3264
3,480,640
3,153,204
3,480,640
3,480,640
3,480,640
3,480,640
3,240,320
3,2448,3264
3,240,320
3,480,640
3,240,320
3,240,320
3,240,320
3,144,256
3,480,640
3,240,320
3,2448,3264
3,240,320
3,240,320
3,480,640
3,480,640
3,480,640
3,480,640
3,204,153
3,480,640
3,480,640
3,480,640
3,480,640
3,480,640
3,3120,4160
3,480,640
3,480,640
3,480,640
3,480,640
3,480,640
3,480,640
3,480,640
3,480,640
3,480,640
3,480,640
3,480,640
3,480,640
3,240,320
3,480,640
3,480,640
3,3120,4160
3,240,320
3,2448,3264
3,480,640
3,480,640
3,204,153
3,240,320
3,2448,3264
3,480,640
3,480,640
3,1932,2576
3,240,320
3,480,640
3,480,640
3,480,640
3,480,640
3,480,640
3,1872,3952
3,480,640
3,480,640
3,480,640
3,240,320
3,3120,4160
3,2448,3264
3,480,640
3,480,640
3,480,640
3,480,640
3,1944,2592
3,480,640
3,480,640
3,480,640
3,480,640
3,480,640
3,480,640
3,1872,3952
3,480,640
3,240,320
3,240,320
3,480,640
3,480,640
3,240,320
3,480,640
3,1932,2576
3,240,320
3,480,640
3,480,640
3,240,320
3,1872,3952
3,480,640
3,1872,3952
3,240,320
3,480,640
3,2448,3264
3,3120,4160
3,480,640
3,480,640
3,240,320
3,240,320
3,240,320
3,480,640
3,240,320
3,240,320
3,240,320
3,480,640
3,240,320
3,480,640
3,480,640
3,480,640
3,480,640
3,3120,4160
3,240,320
3,240,320
3,480,640
3,480,640
3,480,640
3,240,320
3,480,640
3,480,640
3,3120,4160
3,240,320
3,1872,3952
3,480,640
3,480,640
3,480,640
3,480,640
3,480,640
3,480,640
3,240,320
3,480,640
3,480,640
3,1952,4128
3,2448,3264
3,1872,3952
3,3456,4608
3,480,640
3,1944,2592
3,240,320
3,480,640
3,1944,2592
3,480,640
3,480,640
3,240,320
3,480,640
3,1952,4128
3,480,640
3,480,640
3,480,640
3,480,640
3,240,320
3,480,640
3,240,320
3,240,320
3,204,153
3,3456,4608
3,480,640
3,480,640
3,480,640
3,480,640
3,240,320
3,240,320
3,2448,3264
3,480,640
3,480,640
3,3456,4608
3,240,320
3,480,640
3,480,640
3,480,640
3,480,640
3,240,320
3,480,640
3,480,640
3,480,640
3,480,640
3,1872,3952
3,480,640
3,153,204
3,3120,4160
3,240,320
3,480,640
3,480,640
3,480,640
3,1932,2576
3,480,640
3,3120,4160
3,480,640
3,480,640
3,240,320
3,240,320
3,480,640
3,1872,3952
3,1952,4128
3,480,640
3,480,640
3,240,320
3,480,640
3,480,640
3,480,640
3,240,320
3,480,640
3,480,640
3,480,640
3,480,640
3,480,640
3,480,640
3,480,640
3,480,640
3,240,320
3,480,640
3,1872,3952
3,480,640
3,240,320
3,480,640
3,480,640
3,240,320
3,2448,3264
3,240,320
3,480,640
3,480,640
3,480,640
3,480,640
3,480,640
3,480,640
3,204,153
3,240,320
3,3120,4160
3,480,640
3,480,640
3,240,320
3,240,320
3,480,640
3,160,120
3,240,320
3,240,320
3,480,640
3,480,640
3,480,640
3,480,640
3,480,640
3,480,640
3,195,260
3,480,640
3,480,640
3,480,640
3,480,640
3,480,640
3,240,320
3,480,640
3,2448,3264
3,480,640
3,1872,3952
3,480,640
3,480,640
3,240,320
3,480,640
3,480,640
3,240,320
3,480,640
3,480,640
3,240,320
3,480,640
3,480,640
3,2448,3264
3,480,640
3,480,640
3,240,320
3,240,320
3,480,640
3,1872,3952
3,480,640
3,480,640
3,480,640
3,240,320
3,480,640
3,480,640
3,480,640
3,480,640
3,480,640
3,240,320
3,480,640
3,480,640
3,480,640
3,480,640
3,480,640
3,480,640
3,240,320
3,240,320
3,480,640
3,480,640
3,480,640
3,320,240
3,1872,3952
3,480,640
3,480,640
3,480,640
3,480,640
3,240,320
3,3456,3456
3,480,640
3,240,320
3,480,640
3,204,153
3,2448,3264
3,1872,3952
3,480,640
3,480,640
3,240,320
3,480,640
3,480,640
3,480,640
3,480,640
3,1944,2592
3,480,640
3,480,640
3,480,640
3,480,640
3,480,640
3,480,640
3,153,204
3,480,640
3,3120,4160
3,480,640
3,480,640
3,480,640
3,480,640
3,480,640
3,480,640
3,480,640
3,480,640
3,480,640
3,480,640
3,480,640
3,1872,3952
3,480,640
3,240,320
3,480,640
3,480,640
3,2448,3264
3,240,320
3,480,640
3,480,640
3,240,320
3,1952,4128
3,480,640
3,2448,3264
3,480,640
3,240,320
3,480,640
3,480,640
3,480,640
3,240,320
3,3120,4160
3,480,640
3,240,320
3,480,640
3,144,256
3,480,640
3,240,320
3,3120,4160
3,240,320
3,480,640
3,480,640
3,480,640
3,480,640
3,1944,2592
3,480,640
3,480,640
3,480,640
3,480,640
3,480,640
3,240,320
3,480,640
3,240,320
3,240,320
3,480,640
3,1872,4160
3,480,640
3,240,320
3,2448,3264
3,480,640
3,240,320
3,2448,3264
3,480,640
3,480,640
3,240,320
3,480,640
3,480,640
3,480,640
3,480,640
3,1872,3952
3,480,640
3,240,320
3,480,640
3,480,640
3,240,320
3,480,640
3,240,320
3,480,640
3,480,640
3,480,640
3,240,320
3,480,640
3,480,640
3,480,640
3,480,640
3,240,320
3,480,640
3,480,640
3,480,640
3,480,640
3,480,640
3,480,640
3,240,320
3,240,320
3,480,640
3,240,320
3,240,320
3,480,640
3,480,640
3,240,320
3,480,640
3,480,640
3,480,640
3,480,640
3,480,640
3,2448,3264
3,240,320
3,480,640
3,480,640
3,480,640
3,480,640
3,480,640
3,240,320
3,480,640
3,1872,3952
3,480,640
3,2448,3264
3,480,640
3,480,640
3,480,640
3,240,320
3,240,320
3,240,320
3,240,320
3,480,640
3,480,640
3,240,320
3,480,640
3,480,640
3,480,640
3,240,320
3,240,320
3,480,640
3,480,640
3,240,320
3,480,640
3,1872,3952
3,1944,2592
3,240,320
3,480,640
3,480,640
3,480,640
3,480,640
3,1872,3952
3,480,640
3,480,640
3,1872,3952
3,240,320
3,2448,3264
3,480,640
3,204,153
3,480,640
3,480,640
3,240,320
3,480,640
3,480,640
3,1944,2592
3,240,320
3,480,640
3,480,640
3,1872,3952
3,480,640
3,1944,2592
3,240,320
3,2448,3264
3,480,640
3,480,640
3,240,320
3,204,153
3,240,320
3,480,640
3,240,320
3,480,640
3,240,320
3,1872,3952
3,240,320
3,3120,4160
3,240,320
3,480,640
3,1872,3952
3,480,640
3,480,640
3,240,320
3,480,640
3,240,320
3,3120,4160
3,480,640
3,240,320
3,480,640
3,240,320
3,240,320
3,480,640
3,480,640
3,240,320
3,480,640
3,480,640
3,480,640
3,240,320
3,480,640
3,480,640
3,3456,4608
3,480,640
3,480,640
3,3456,3456
3,204,153
3,204,153
3,240,320
3,480,640
3,480,640
3,480,640
3,240,320
3,240,320
3,480,640
3,240,320
3,480,640
3,240,320
3,480,640
3,480,640
3,240,320
3,480,640
3,240,320
3,240,320
3,240,320
3,240,320
3,1872,3952
3,240,320
3,240,320
3,480,640
3,480,640
3,240,320
3,240,320
3,480,640
3,1872,3952
3,480,640
3,240,320
3,240,320
3,240,320
3,240,320
3,2448,3264
3,480,640
3,102,204
3,480,640
3,480,640
3,240,320
3,480,640
3,240,320
3,240,320
3,480,640
3,480,640
3,480,640
3,480,640
3,480,640
3,204,153
3,240,320
3,2448,3264
3,480,640
3,480,640
3,480,640
3,240,320
3,240,320
3,480,640
3,2448,3264
3,480,640
3,480,640
3,480,640
3,480,640
3,240,320
3,240,320
3,480,640
3,480,640
3,240,320
3,480,640
3,480,640
3,240,320
3,240,320
3,480,640
3,480,640
3,480,640
3,480,640
3,240,320
3,480,640
3,480,640
3,480,640
3,480,640
3,480,640
3,480,640
3,240,320
3,480,640
3,480,640
3,480,640
3,240,320
3,480,640
3,240,320
3,480,640
3,2448,3264
3,3120,4160
3,480,640
3,2448,3264
3,480,640
3,480,640
3,480,640
3,240,320
3,480,640
3,240,320
3,240,320
3,1872,3952
3,240,320
3,480,640
3,480,640
3,480,640
3,240,320
3,1872,3952
3,480,640
3,240,320
3,480,640
3,480,640
3,240,320
3,480,640
3,1872,4160
3,240,320
3,3456,3456
3,480,640
3,480,640
3,480,640
3,240,320
3,480,640
3,3456,4608
3,240,320
3,480,640
3,480,640
3,2448,3264
3,204,153
3,480,640
3,480,640
3,480,640
3,260,195
3,480,640
3,480,640
3,240,320
3,240,320
3,480,640
3,480,640
3,2448,3264
3,480,640
3,240,320
3,480,640
3,240,320
3,240,320
3,480,640
3,480,640
3,480,640
3,3120,4160
3,240,320
3,240,320
3,1952,4128
3,240,320
3,480,640
3,480,640
3,240,320
3,480,640
3,480,640
3,240,320
3,480,640
3,480,640
3,480,640
3,3120,4160
3,153,204
3,480,640
3,1872,3952
3,1944,2592
3,480,640
3,240,320
3,480,640
3,480,640
3,480,640
3,240,320
3,3120,4160
3,240,320
3,240,320
3,480,640
3,2448,3264
3,240,320
3,1872,3952
3,240,320
3,480,640
3,1872,3952
3,240,320
3,480,640
3,240,320
3,480,640
3,240,320
3,204,153
3,240,320
3,480,640
3,480,640
3,240,320
3,240,320
3,480,640
3,480,640
3,240,320
3,240,320
3,480,640
3,1872,3952
3,480,640
3,3120,4160
3,2448,3264
3,480,640
3,2160,3840
3,3120,4160
3,480,640
3,240,320
3,480,640
3,480,640
3,240,320
3,3120,4160
3,480,640
3,480,640
3,2448,3264
3,240,320
3,240,320
3,480,640
3,240,320
3,480,640
3,480,640
3,480,640
3,240,320
3,240,320
3,480,640
3,480,640
3,240,320
3,2448,3264
3,480,640
3,1872,3952
3,240,320
3,3096,4128
3,480,640
3,240,320
3,240,320
3,240,320
3,240,320
3,480,640
3,480,640
3,2448,3264
3,480,640
3,240,320
3,480,640
3,480,640
3,1872,3952
3,1872,3952
3,3120,4160
3,2448,3264
3,480,640
3,1952,4128
3,480,640
3,480,640
3,3120,4160
3,153,204
3,480,640
3,480,640
3,240,320
3,480,640
3,480,640
3,480,640
3,240,320
3,1872,3952
3,480,640
3,240,320
3,480,640
3,240,320
3,480,640
3,480,640
3,240,320
3,240,320
3,1944,2592
3,240,320
3,240,320
3,480,640
3,2448,3264
3,240,320
3,480,640
3,480,640
3,480,640
3,240,320
3,480,640
3,1872,3952
3,480,640
3,480,640
3,480,640
3,480,640
3,480,640
3,480,640
3,240,320
3,2448,3264
3,240,320
3,480,640
3,480,640
3,480,640
3,240,320
3,480,640
3,480,640
3,480,640
3,480,640
3,480,640
3,480,640
3,480,640
3,1944,2592
3,480,640
3,240,320
3,480,640
3,480,640
3,480,640
3,480,640
3,480,640
3,480,640
3,480,640
3,480,640
3,480,640
3,240,320
3,240,320
3,240,320
3,480,640
3,480,640
3,3120,4160
3,480,640
3,240,320
3,1872,3952
3,240,320
3,480,640
3,480,640
3,480,640
3,480,640
3,3120,4160
3,240,320
3,1872,3952
3,480,640
3,480,640
3,480,640
3,144,256
3,480,640
3,240,320
3,240,320
3,480,640
3,1944,2592
3,240,320
3,240,320
3,480,640
3,480,640
3,480,640
3,480,640
3,2448,3264
