name,label,pred
"('L',)",0.0,-0.025438860058784485
"('L',)",0.0,0.30967581272125244
"('2',)",0.0,0.41312605142593384
"('L',)",90.0,79.77525329589844
"('L',)",0.0,0.16481344401836395
"('1',)",0.0,0.4397745728492737
"('L',)",0.0,0.34496140480041504
"('L',)",0.0,0.1538032740354538
"('L',)",0.0,0.31314516067504883
"('L',)",10.0,14.044522285461426
"('L',)",0.0,0.3558078408241272
"('L',)",0.0,0.758725106716156
"('L',)",0.0,0.2905069589614868
"('L',)",0.0,0.3460388779640198
"('L',)",40.0,41.12267303466797
"('L',)",0.0,-0.2863612771034241
"('L',)",60.0,54.14374923706055
"('L',)",60.0,53.56342315673828
"('L',)",10.0,10.808002471923828
"('L',)",0.0,0.36503952741622925
"('L',)",0.0,0.25304484367370605
"('2',)",0.0,0.41610121726989746
"('L',)",50.0,64.79728698730469
"('L',)",0.0,0.1762431114912033
"('L',)",0.0,0.6097024083137512
"('L',)",0.0,0.2837992310523987
"('1',)",10.0,12.10332202911377
"('L',)",0.0,0.3543485999107361
"('L',)",0.0,0.3546062111854553
"('2',)",0.0,0.2548321485519409
"('L',)",0.0,0.3630378246307373
"('L',)",0.0,0.2466696947813034
"('L',)",0.0,0.5268853902816772
"('L',)",0.0,0.398262083530426
"('L',)",0.0,0.2461211234331131
"('L',)",0.0,0.32416707277297974
"('L',)",0.0,0.4253939986228943
"('L',)",0.0,0.28493934869766235
"('L',)",0.0,0.22381453216075897
"('1',)",80.0,74.74555969238281
"('L',)",0.0,0.5337442755699158
"('L',)",0.0,0.34705954790115356
"('L',)",0.0,0.39012086391448975
"('L',)",0.0,0.3367044925689697
"('L',)",0.0,0.26547741889953613
"('L',)",0.0,0.2460884004831314
"('L',)",0.0,0.22140245139598846
"('L',)",0.0,0.40285325050354004
"('L',)",0.0,0.4875338673591614
"('L',)",0.0,0.5207319259643555
"('L',)",0.0,0.33307093381881714
"('1',)",0.0,0.32573723793029785
"('L',)",0.0,0.27864301204681396
"('2',)",0.0,0.17067240178585052
"('L',)",80.0,80.92827606201172
"('L',)",0.0,0.40662693977355957
"('L',)",0.0,0.3955379128456116
"('L',)",0.0,0.25965946912765503
"('L',)",40.0,48.50166320800781
"('L',)",0.0,0.7048853039741516
"('L',)",0.0,0.38081222772598267
"('L',)",30.0,37.80986404418945
"('L',)",20.0,19.746726989746094
"('L',)",0.0,0.30948084592819214
"('L',)",0.0,0.0768985003232956
"('L',)",0.0,0.4220244884490967
"('9',)",0.0,0.3608449101448059
"('L',)",0.0,0.24082688987255096
"('L',)",0.0,0.3837464153766632
"('2',)",0.0,0.3741747736930847
"('L',)",0.0,-0.24135573208332062
"('L',)",0.0,0.4481515884399414
"('4',)",0.0,0.18564103543758392
"('L',)",0.0,0.24397026002407074
"('L',)",0.0,0.5472831726074219
"('L',)",0.0,0.5383374094963074
"('L',)",0.0,-0.32200008630752563
"('L',)",0.0,0.45999157428741455
"('L',)",0.0,0.38581907749176025
"('L',)",0.0,0.404135525226593
"('L',)",0.0,0.1557728499174118
"('L',)",20.0,22.009180068969727
"('L',)",0.0,0.34975355863571167
"('L',)",0.0,0.4063350558280945
"('L',)",10.0,14.456137657165527
"('L',)",0.0,0.5475718379020691
"('L',)",0.0,1.49661386013031
"('L',)",0.0,0.29518812894821167
"('L',)",0.0,0.026262328028678894
"('L',)",0.0,0.05634336173534393
"('L',)",0.0,0.23757033050060272
"('2',)",0.0,0.3233024477958679
"('L',)",0.0,0.25493156909942627
"('L',)",0.0,0.4091019630432129
"('L',)",0.0,0.18009726703166962
"('L',)",0.0,0.48901838064193726
"('L',)",60.0,56.59793472290039
"('L',)",0.0,0.47238272428512573
"('L',)",0.0,0.6306008696556091
"('L',)",0.0,0.3048328757286072
"('L',)",100.0,88.14624786376953
"('L',)",0.0,0.6580062508583069
"('L',)",0.0,0.4936729073524475
"('L',)",0.0,-0.07998855412006378
"('L',)",40.0,35.751129150390625
"('L',)",0.0,0.4610021710395813
"('L',)",0.0,0.3645331859588623
"('L',)",0.0,0.36189931631088257
"('L',)",0.0,0.5291393995285034
"('L',)",40.0,38.653602600097656
"('9',)",0.0,0.04218326508998871
"('L',)",0.0,0.33186018466949463
"('L',)",0.0,0.42258960008621216
"('L',)",0.0,0.38642576336860657
"('2',)",0.0,0.5882302522659302
"('L',)",0.0,0.4745713472366333
"('L',)",0.0,0.33695363998413086
"('L',)",0.0,0.32998037338256836
"('L',)",50.0,49.50197982788086
"('L',)",0.0,0.4062650799751282
"('L',)",0.0,0.2899929881095886
"('L',)",0.0,0.7920832633972168
"('L',)",20.0,21.530973434448242
"('L',)",0.0,0.2730604410171509
"('L',)",0.0,0.32903605699539185
"('L',)",0.0,0.23862414062023163
"('L',)",20.0,20.80882453918457
"('L',)",0.0,0.09367935359477997
"('L',)",0.0,0.30702126026153564
"('L',)",0.0,-0.0494779497385025
"('L',)",0.0,0.3426193296909332
"('L',)",0.0,0.4843737483024597
"('L',)",0.0,0.49025118350982666
"('2',)",0.0,0.0707428902387619
"('L',)",0.0,0.40714389085769653
"('L',)",0.0,0.3066304326057434
"('L',)",0.0,0.33096909523010254
"('L',)",0.0,0.4750649333000183
"('L',)",0.0,0.18018369376659393
"('L',)",80.0,77.71106719970703
"('L',)",20.0,15.613852500915527
"('2',)",0.0,0.4410255551338196
"('L',)",10.0,10.954111099243164
"('L',)",0.0,0.5771015286445618
"('L',)",0.0,0.39523059129714966
"('L',)",0.0,0.2362414449453354
"('L',)",0.0,0.4860520362854004
"('L',)",50.0,49.200504302978516
"('L',)",0.0,0.22346089780330658
"('L',)",0.0,0.6026975512504578
"('L',)",0.0,0.43996280431747437
"('L',)",0.0,0.39727747440338135
"('L',)",0.0,0.29136592149734497
"('L',)",0.0,0.1898278445005417
"('L',)",0.0,0.16359828412532806
"('L',)",0.0,0.5056586861610413
"('L',)",0.0,0.19056521356105804
"('L',)",0.0,-0.2883630394935608
"('L',)",0.0,0.4539507031440735
"('L',)",0.0,0.36146801710128784
"('2',)",0.0,0.23250101506710052
"('L',)",0.0,0.34158581495285034
"('L',)",30.0,34.47159957885742
"('L',)",70.0,58.241268157958984
"('L',)",0.0,0.3783782124519348
"('L',)",0.0,0.06165711581707001
"('L',)",0.0,0.506934642791748
"('L',)",0.0,0.4908248782157898
"('L',)",90.0,87.15760803222656
"('L',)",0.0,0.554014265537262
"('L',)",30.0,28.74942970275879
"('L',)",0.0,0.5493982434272766
"('L',)",0.0,0.4954875111579895
"('L',)",0.0,0.27836430072784424
"('L',)",0.0,0.3813694715499878
"('L',)",0.0,0.1578204482793808
"('L',)",0.0,0.3116317391395569
"('L',)",0.0,0.29668164253234863
"('L',)",0.0,-0.1514350324869156
"('L',)",0.0,0.5270148515701294
"('L',)",0.0,0.40224528312683105
"('7',)",0.0,0.15653179585933685
"('L',)",0.0,0.32268327474594116
"('L',)",0.0,0.3623114228248596
"('L',)",0.0,0.44777733087539673
"('L',)",0.0,0.020715638995170593
"('1',)",0.0,0.39762985706329346
"('L',)",0.0,0.3138344883918762
"('L',)",0.0,0.1529717892408371
"('L',)",0.0,0.3155369758605957
"('L',)",0.0,0.31331104040145874
"('L',)",0.0,0.5125752687454224
"('L',)",0.0,-0.08837731182575226
"('L',)",0.0,0.19175855815410614
"('L',)",0.0,0.4193424582481384
"('L',)",20.0,33.01639175415039
"('L',)",0.0,0.35605478286743164
"('L',)",20.0,25.630495071411133
"('L',)",0.0,0.5518338680267334
"('L',)",0.0,-0.017472460865974426
"('L',)",0.0,0.5246244072914124
"('7',)",0.0,0.16194342076778412
"('L',)",0.0,0.45002371072769165
"('L',)",0.0,0.209880992770195
"('L',)",0.0,0.47138458490371704
"('L',)",0.0,0.2898402214050293
"('2',)",0.0,0.15582887828350067
"('L',)",0.0,0.4363962411880493
"('L',)",20.0,16.404462814331055
"('L',)",0.0,0.6145232319831848
"('2',)",0.0,0.06287001073360443
"('L',)",0.0,0.3029356002807617
"('L',)",0.0,0.3159525394439697
"('L',)",0.0,0.12832169234752655
"('L',)",0.0,0.5465736985206604
"('L',)",0.0,0.24640433490276337
"('L',)",0.0,0.362490713596344
"('L',)",0.0,0.2122529000043869
"('L',)",0.0,0.293101966381073
"('L',)",0.0,-0.2823440432548523
"('L',)",0.0,0.06511072814464569
"('1',)",0.0,0.23533950746059418
"('L',)",0.0,0.45967334508895874
"('L',)",0.0,0.4341864585876465
"('L',)",0.0,0.2508201003074646
"('2',)",70.0,60.14141082763672
"('L',)",0.0,0.43683677911758423
"('L',)",30.0,24.607784271240234
"('L',)",0.0,0.3968265652656555
"('L',)",0.0,0.4120039939880371
"('L',)",0.0,0.32351481914520264
"('L',)",0.0,0.5174923539161682
"('L',)",0.0,0.24349574744701385
"('L',)",0.0,0.5323977470397949
"('2',)",0.0,0.32227450609207153
"('L',)",0.0,0.2625495195388794
"('L',)",40.0,51.072845458984375
"('L',)",0.0,0.271115779876709
"('L',)",0.0,0.25301867723464966
"('L',)",10.0,11.350303649902344
"('L',)",30.0,30.888402938842773
"('L',)",0.0,0.28757941722869873
"('L',)",0.0,-0.16694457828998566
"('L',)",0.0,-0.0502980500459671
"('L',)",0.0,0.46723538637161255
"('L',)",0.0,0.2106485813856125
"('L',)",0.0,0.2743526101112366
"('L',)",0.0,0.05625323951244354
"('L',)",0.0,0.003989860415458679
"('L',)",0.0,0.3540928363800049
"('L',)",0.0,0.5034142732620239
"('L',)",0.0,0.4592946767807007
"('L',)",0.0,0.45233553647994995
"('L',)",0.0,0.5133708119392395
"('L',)",0.0,0.29271459579467773
"('L',)",0.0,0.3054138422012329
"('L',)",0.0,0.6025798916816711
"('L',)",20.0,20.793691635131836
"('L',)",0.0,0.27025777101516724
"('1',)",0.0,0.354449987411499
"('L',)",0.0,0.5553520321846008
"('L',)",50.0,31.040037155151367
"('L',)",0.0,0.3576001524925232
"('L',)",20.0,15.05191421508789
"('L',)",0.0,0.23753975331783295
"('L',)",40.0,33.748111724853516
"('L',)",0.0,-0.0751095563173294
"('L',)",0.0,0.5391811728477478
"('7',)",0.0,0.03160803020000458
"('L',)",0.0,0.3133270740509033
"('L',)",0.0,0.39167624711990356
"('L',)",0.0,0.14535562694072723
"('L',)",0.0,0.27208375930786133
"('L',)",0.0,0.22954533994197845
"('L',)",10.0,10.334004402160645
"('2',)",0.0,0.40687447786331177
"('L',)",0.0,0.3780587911605835
"('L',)",0.0,0.34928613901138306
"('L',)",0.0,0.48854488134384155
"('L',)",0.0,0.01963125169277191
"('L',)",0.0,0.2699171304702759
"('L',)",0.0,0.27118951082229614
"('L',)",20.0,20.049863815307617
"('L',)",0.0,0.30219364166259766
"('L',)",0.0,0.39036160707473755
"('L',)",0.0,0.9091159701347351
"('L',)",0.0,0.33674195408821106
"('L',)",0.0,0.32208406925201416
"('L',)",30.0,33.0707893371582
"('L',)",0.0,0.11753015220165253
"('L',)",0.0,0.2332976907491684
"('L',)",0.0,0.3762167692184448
"('2',)",70.0,66.25183868408203
"('L',)",0.0,0.16715846955776215
"('L',)",0.0,0.3787921965122223
"('L',)",0.0,0.3223470449447632
"('L',)",0.0,0.4545517563819885
"('L',)",0.0,0.23895303905010223
"('L',)",10.0,12.049652099609375
"('L',)",20.0,17.691402435302734
"('L',)",0.0,0.5010272860527039
"('L',)",50.0,41.61894226074219
"('2',)",0.0,0.2594309449195862
"('L',)",30.0,29.49735450744629
"('L',)",0.0,0.35314106941223145
"('L',)",80.0,71.25208282470703
"('L',)",0.0,0.17600934207439423
"('L',)",0.0,0.3525388240814209
"('L',)",0.0,0.4846622943878174
"('L',)",0.0,0.024198338389396667
"('L',)",0.0,0.45788609981536865
"('3',)",60.0,56.15376663208008
"('L',)",40.0,43.284149169921875
"('L',)",0.0,0.49213671684265137
"('L',)",0.0,0.287167489528656
"('L',)",0.0,0.45614683628082275
"('L',)",0.0,0.38849693536758423
"('L',)",0.0,0.27807217836380005
"('L',)",0.0,-0.01010759174823761
"('L',)",0.0,-0.038932159543037415
"('L',)",0.0,0.08683733642101288
"('L',)",0.0,0.44724583625793457
"('L',)",0.0,0.4192739725112915
"('L',)",0.0,0.4801185131072998
"('L',)",10.0,11.90156078338623
"('L',)",60.0,64.6211929321289
"('L',)",0.0,0.3962624669075012
"('L',)",0.0,0.2879442572593689
"('L',)",80.0,76.09735107421875
"('L',)",0.0,0.438801109790802
"('L',)",60.0,65.44034576416016
"('L',)",0.0,0.43525397777557373
"('L',)",0.0,0.3761804401874542
"('L',)",10.0,13.11269760131836
"('L',)",0.0,0.2511395215988159
"('L',)",30.0,27.031896591186523
"('L',)",0.0,-0.1888386756181717
"('L',)",0.0,-0.07143290340900421
"('L',)",0.0,0.2728869318962097
"('L',)",0.0,0.25672680139541626
"('L',)",0.0,0.37621980905532837
"('L',)",0.0,0.3285970091819763
"('L',)",0.0,0.39286601543426514
"('L',)",0.0,0.08730261027812958
"('L',)",0.0,0.1747618168592453
"('L',)",0.0,0.4178466796875
"('L',)",0.0,0.015323683619499207
"('L',)",0.0,0.46004027128219604
"('L',)",60.0,63.621707916259766
"('L',)",70.0,61.00722122192383
"('L',)",0.0,-0.040096357464790344
"('8',)",0.0,0.2928360104560852
"('L',)",20.0,21.10090446472168
"('L',)",0.0,0.6160372495651245
"('L',)",0.0,0.5329492092132568
"('L',)",0.0,0.3192998766899109
"('L',)",10.0,10.733573913574219
"('L',)",0.0,0.7511971592903137
"('L',)",80.0,79.55646514892578
"('L',)",0.0,0.39237433671951294
"('L',)",0.0,-0.13820894062519073
"('L',)",0.0,0.3403761386871338
"('L',)",0.0,0.31100356578826904
"('L',)",0.0,0.4270442724227905
"('L',)",0.0,0.5052315592765808
"('2',)",10.0,13.297578811645508
"('2',)",0.0,2.2991280555725098
"('L',)",0.0,0.5284664034843445
"('L',)",0.0,-0.28808265924453735
"('8',)",0.0,0.3118025064468384
"('L',)",0.0,0.2598130702972412
"('L',)",0.0,0.43161725997924805
"('L',)",80.0,78.31291198730469
"('1',)",0.0,0.4513571858406067
"('L',)",0.0,0.23364637792110443
"('L',)",0.0,-0.009151771664619446
"('L',)",0.0,0.1537400335073471
"('L',)",0.0,0.2701512575149536
"('L',)",0.0,0.1314406841993332
"('L',)",0.0,0.31346267461776733
"('L',)",0.0,0.15114836394786835
"('L',)",20.0,15.270383834838867
"('L',)",0.0,0.5840445160865784
"('L',)",0.0,0.2108859270811081
"('L',)",0.0,0.22601519525051117
"('L',)",50.0,46.79018020629883
"('L',)",0.0,0.3416879177093506
"('L',)",0.0,0.3587772250175476
"('L',)",0.0,0.6303545236587524
"('L',)",0.0,0.3408709764480591
"('L',)",0.0,-0.15225429832935333
"('L',)",0.0,0.22811709344387054
"('1',)",0.0,0.4234890341758728
"('L',)",0.0,0.384864866733551
"('L',)",30.0,28.815101623535156
"('L',)",50.0,46.01321792602539
"('L',)",0.0,-0.20633704960346222
"('L',)",0.0,0.34340977668762207
"('L',)",0.0,0.5817274451255798
"('L',)",0.0,0.37643688917160034
"('L',)",0.0,0.2551419138908386
"('L',)",0.0,0.3559423089027405
"('L',)",0.0,0.46482574939727783
"('L',)",0.0,-0.010974839329719543
"('L',)",0.0,0.2589848041534424
"('L',)",0.0,0.2865108251571655
"('L',)",10.0,13.119880676269531
"('L',)",0.0,0.25523895025253296
"('L',)",0.0,0.16556178033351898
"('L',)",30.0,38.88384246826172
"('L',)",0.0,0.4005267024040222
"('L',)",0.0,0.06059293448925018
"('L',)",0.0,0.54497891664505
"('L',)",0.0,0.47490501403808594
"('1',)",0.0,0.24528180062770844
"('L',)",0.0,-0.03994794189929962
"('L',)",0.0,0.4055548310279846
"('L',)",0.0,0.34266364574432373
"('L',)",0.0,0.46192866563796997
"('L',)",0.0,0.3580114245414734
"('L',)",0.0,0.3708927631378174
"('6',)",0.0,0.3235853910446167
"('2',)",50.0,47.87987518310547
"('1',)",40.0,37.405818939208984
"('2',)",0.0,0.3848063349723816
"('L',)",0.0,0.14165334403514862
"('L',)",0.0,0.3902461528778076
"('L',)",40.0,37.47735595703125
"('L',)",0.0,0.4126434922218323
"('L',)",0.0,0.5527681112289429
"('L',)",10.0,13.52833366394043
"('L',)",0.0,0.2549380660057068
"('L',)",40.0,41.040462493896484
"('L',)",0.0,0.1992313116788864
"('L',)",0.0,0.1848490685224533
"('L',)",40.0,41.57525634765625
"('L',)",60.0,58.32611083984375
"('L',)",0.0,0.4141870141029358
"('L',)",0.0,0.5914504528045654
"('L',)",0.0,-0.29195183515548706
"('L',)",0.0,0.35041123628616333
"('L',)",0.0,-0.06804908812046051
"('L',)",0.0,0.2635542154312134
"('L',)",0.0,0.04291681945323944
"('L',)",60.0,63.40546798706055
"('L',)",0.0,0.4118334650993347
"('L',)",0.0,0.43843257427215576
"('L',)",0.0,0.509595513343811
"('L',)",0.0,0.5593291521072388
"('L',)",0.0,0.5357241630554199
"('L',)",0.0,0.2024889439344406
"('1',)",0.0,0.22821657359600067
"('L',)",0.0,1.2553551197052002
"('3',)",60.0,60.364654541015625
"('L',)",50.0,51.97142028808594
"('L',)",0.0,0.46307075023651123
"('L',)",0.0,0.2797330617904663
"('L',)",0.0,-0.3301643133163452
"('2',)",0.0,0.23965565860271454
"('L',)",20.0,18.940105438232422
"('L',)",0.0,0.5843259692192078
"('L',)",40.0,39.081729888916016
"('L',)",0.0,0.5036537647247314
"('L',)",0.0,0.43641364574432373
"('2',)",0.0,0.4940451979637146
"('L',)",0.0,0.39515990018844604
"('L',)",0.0,0.4205196499824524
"('L',)",30.0,30.29005241394043
"('L',)",0.0,0.2865455150604248
"('L',)",0.0,0.35320502519607544
"('L',)",0.0,0.2624450922012329
"('L',)",90.0,83.03626251220703
"('L',)",0.0,0.3337099552154541
"('L',)",0.0,0.10592631995677948
"('1',)",0.0,0.6245450973510742
"('L',)",50.0,54.42280960083008
"('L',)",0.0,0.3103852868080139
"('7',)",0.0,0.30164068937301636
"('L',)",0.0,0.35950392484664917
"('L',)",0.0,0.4779294729232788
"('1',)",0.0,-0.11277993023395538
"('L',)",0.0,0.06610767543315887
"('L',)",50.0,48.23838424682617
"('L',)",0.0,0.22114597260951996
"('L',)",0.0,0.38978075981140137
"('L',)",0.0,0.31730151176452637
"('L',)",0.0,0.3722979426383972
"('L',)",0.0,0.38154667615890503
"('1',)",0.0,0.3379034399986267
"('L',)",20.0,20.234825134277344
"('L',)",0.0,0.38526272773742676
"('L',)",0.0,0.4613780379295349
"('L',)",20.0,18.248422622680664
"('L',)",0.0,0.4066222310066223
"('L',)",0.0,0.17396347224712372
"('L',)",0.0,0.318118691444397
"('L',)",0.0,0.517160177230835
"('L',)",0.0,0.23747678101062775
"('L',)",0.0,0.20158229768276215
"('2',)",0.0,0.27988481521606445
"('L',)",0.0,0.2351677566766739
"('L',)",0.0,0.275568425655365
"('L',)",0.0,0.4230008125305176
"('L',)",0.0,0.3339499831199646
"('L',)",0.0,0.35419636964797974
"('L',)",0.0,0.35992658138275146
"('L',)",0.0,0.24377600848674774
"('L',)",0.0,0.32478833198547363
"('L',)",10.0,13.096233367919922
"('2',)",10.0,12.847272872924805
"('L',)",0.0,0.30339890718460083
"('L',)",0.0,0.2446843832731247
"('L',)",0.0,1.8616997003555298
"('L',)",10.0,12.56346607208252
"('L',)",0.0,0.2975001931190491
"('L',)",0.0,0.26379120349884033
"('L',)",0.0,0.2213418334722519
"('L',)",0.0,0.4235561490058899
"('L',)",0.0,-0.44132453203201294
"('L',)",0.0,0.480021595954895
"('L',)",0.0,0.03167836368083954
"('L',)",0.0,0.4193681478500366
"('L',)",60.0,55.416778564453125
"('L',)",0.0,0.2657920718193054
"('L',)",0.0,0.03955398499965668
"('L',)",0.0,0.5001238584518433
"('1',)",0.0,0.36575835943222046
"('L',)",50.0,44.93159484863281
"('L',)",0.0,0.3541688323020935
"('L',)",0.0,0.417108952999115
"('L',)",0.0,0.2512168288230896
"('L',)",0.0,0.1521708220243454
"('L',)",0.0,0.4363001585006714
"('L',)",10.0,11.318492889404297
"('L',)",30.0,26.876094818115234
"('L',)",0.0,0.4808863401412964
"('L',)",0.0,0.2308449000120163
"('2',)",0.0,0.33967018127441406
"('L',)",0.0,0.5148264169692993
"('L',)",0.0,0.22122232615947723
"('L',)",30.0,28.032827377319336
"('L',)",0.0,0.21585045754909515
"('L',)",0.0,0.31836986541748047
"('L',)",0.0,0.19035904109477997
"('L',)",0.0,0.7067601084709167
"('L',)",0.0,0.3988625407218933
"('L',)",0.0,0.44680553674697876
"('L',)",50.0,49.58952713012695
"('L',)",0.0,0.33029240369796753
"('L',)",0.0,0.2738566994667053
"('L',)",0.0,0.34180182218551636
"('L',)",0.0,0.3525184988975525
"('L',)",40.0,40.083335876464844
"('L',)",0.0,0.46213579177856445
"('L',)",0.0,0.27878570556640625
"('L',)",0.0,-0.12990452349185944
"('L',)",30.0,31.60616683959961
"('L',)",0.0,0.1776420921087265
"('L',)",0.0,0.0049620121717453
"('1',)",0.0,0.523463785648346
"('L',)",0.0,0.17071650922298431
"('L',)",0.0,0.28857165575027466
"('L',)",0.0,0.5592637062072754
"('L',)",0.0,0.27522826194763184
"('L',)",0.0,0.28281348943710327
"('L',)",0.0,0.2800443768501282
"('L',)",40.0,39.73564147949219
"('L',)",0.0,0.5240091681480408
"('L',)",10.0,13.28159236907959
"('L',)",0.0,0.4918525815010071
"('L',)",0.0,-0.00038398802280426025
"('L',)",0.0,0.3959364891052246
"('2',)",0.0,0.03102569282054901
"('L',)",0.0,0.22453097999095917
"('L',)",0.0,0.3529152274131775
"('L',)",0.0,0.5468237996101379
"('L',)",0.0,-0.1453889161348343
"('8',)",0.0,0.3909304141998291
"('L',)",0.0,-0.3340316414833069
"('L',)",0.0,0.3582514524459839
"('L',)",0.0,0.4894191026687622
"('3',)",0.0,-0.2475842982530594
"('L',)",0.0,0.47155749797821045
"('L',)",0.0,0.26340627670288086
"('L',)",0.0,0.23402850329875946
"('L',)",0.0,0.48740851879119873
"('L',)",0.0,0.5057730078697205
"('L',)",0.0,0.2792420983314514
"('L',)",20.0,17.46508026123047
"('L',)",0.0,0.2640640139579773
"('L',)",10.0,13.521968841552734
"('L',)",0.0,0.04878060519695282
"('L',)",0.0,0.23380731046199799
"('L',)",60.0,65.44466400146484
"('L',)",0.0,-0.11981578171253204
"('L',)",0.0,0.47274184226989746
"('L',)",0.0,0.2175605744123459
"('L',)",0.0,0.4572755694389343
"('L',)",0.0,0.5688728094100952
"('L',)",0.0,0.1418856829404831
"('1',)",0.0,0.1919308751821518
"('L',)",0.0,0.34577202796936035
"('L',)",90.0,91.60175323486328
"('L',)",0.0,0.37210214138031006
"('L',)",30.0,28.307077407836914
"('L',)",0.0,0.5128281712532043
"('L',)",0.0,0.3654226064682007
"('L',)",0.0,0.18679873645305634
"('L',)",0.0,0.45494550466537476
"('L',)",0.0,0.2615586519241333
"('L',)",0.0,0.4631972312927246
"('L',)",0.0,0.49810153245925903
"('1',)",0.0,0.10458926856517792
"('L',)",0.0,0.28760212659835815
"('2',)",0.0,0.33987635374069214
"('L',)",0.0,3.166189432144165
"('L',)",0.0,0.5129956007003784
"('L',)",0.0,0.2646822929382324
"('L',)",0.0,0.3298516273498535
"('L',)",20.0,20.64087677001953
"('L',)",0.0,0.32210028171539307
"('L',)",0.0,0.41257375478744507
"('L',)",0.0,0.4997444152832031
"('L',)",0.0,0.30700427293777466
"('L',)",0.0,1.2910996675491333
"('L',)",0.0,0.23043881356716156
"('L',)",0.0,0.40107476711273193
"('L',)",30.0,23.11673355102539
"('L',)",0.0,0.4383464455604553
"('L',)",0.0,1.0226681232452393
"('L',)",0.0,0.4224017858505249
"('L',)",0.0,0.374271035194397
"('L',)",10.0,14.356053352355957
"('L',)",0.0,0.44493401050567627
"('L',)",0.0,0.10119979083538055
"('L',)",0.0,0.7991998791694641
"('L',)",0.0,0.2936782240867615
"('L',)",0.0,0.40163058042526245
"('L',)",0.0,0.3103387951850891
"('L',)",0.0,0.31671571731567383
"('L',)",0.0,0.4009612202644348
"('L',)",10.0,14.273707389831543
"('L',)",0.0,0.22409550845623016
"('L',)",0.0,0.1649513691663742
"('L',)",0.0,0.5096982717514038
"('L',)",0.0,0.3442729711532593
"('L',)",0.0,-0.1011774092912674
"('L',)",0.0,0.47269701957702637
"('L',)",0.0,0.3033030033111572
"('L',)",0.0,0.23394130170345306
"('L',)",0.0,0.11752037703990936
"('L',)",0.0,-0.053147092461586
"('L',)",0.0,0.11556468904018402
"('L',)",0.0,0.13175277411937714
"('L',)",30.0,34.41008758544922
"('L',)",0.0,0.4801507592201233
"('L',)",0.0,0.3197425603866577
"('L',)",0.0,-0.2923334240913391
"('L',)",70.0,67.2407455444336
"('L',)",0.0,0.3515816926956177
"('1',)",10.0,12.30520248413086
"('L',)",0.0,0.4174610376358032
"('L',)",0.0,0.48369908332824707
"('L',)",0.0,0.5633571147918701
"('L',)",0.0,0.3101188540458679
"('L',)",0.0,-0.16056080162525177
"('L',)",0.0,0.3123607039451599
"('L',)",0.0,0.22974376380443573
"('L',)",0.0,0.46762967109680176
"('L',)",0.0,0.3665904998779297
"('L',)",0.0,0.207148477435112
"('L',)",0.0,0.42120254039764404
"('L',)",80.0,77.31979370117188
"('L',)",0.0,0.14980117976665497
"('L',)",60.0,52.6317024230957
"('L',)",0.0,0.3656617999076843
"('L',)",0.0,0.35408902168273926
"('L',)",0.0,0.437000572681427
"('L',)",0.0,0.3678717613220215
"('2',)",0.0,0.3040387034416199
"('L',)",30.0,26.939105987548828
"('L',)",0.0,0.20610280334949493
"('L',)",30.0,22.527244567871094
"('L',)",0.0,0.4513193368911743
"('L',)",0.0,0.2880105972290039
"('L',)",60.0,58.067626953125
"('L',)",0.0,0.4994415044784546
"('L',)",0.0,0.043649956583976746
"('L',)",0.0,0.203522190451622
"('L',)",20.0,22.83977699279785
"('2',)",0.0,0.41961604356765747
"('L',)",0.0,0.46986085176467896
"('1',)",0.0,0.4846005439758301
"('L',)",0.0,0.3812606930732727
"('L',)",0.0,0.13996915519237518
"('L',)",0.0,0.23310570418834686
"('L',)",0.0,0.09902195632457733
"('L',)",0.0,0.39804530143737793
"('L',)",0.0,0.36847805976867676
"('L',)",0.0,0.3153780698776245
"('L',)",0.0,0.5559995174407959
"('L',)",0.0,0.32381725311279297
"('L',)",90.0,78.9058609008789
"('L',)",0.0,0.25664281845092773
"('L',)",0.0,0.21507342159748077
"('L',)",0.0,0.3592291474342346
"('L',)",0.0,0.2719229459762573
"('L',)",0.0,0.5519885420799255
"('L',)",0.0,-0.24683155119419098
"('L',)",0.0,0.16205303370952606
"('L',)",0.0,0.24298809468746185
"('2',)",0.0,0.35497409105300903
"('L',)",0.0,0.31135618686676025
"('L',)",0.0,0.3223080635070801
"('1',)",0.0,0.18345759809017181
"('L',)",0.0,0.3383874297142029
"('L',)",0.0,0.5934723615646362
"('L',)",0.0,0.2511625289916992
"('L',)",0.0,0.05442605912685394
"('L',)",0.0,0.39218026399612427
"('L',)",0.0,0.2223958820104599
"('L',)",0.0,0.3211238980293274
"('L',)",0.0,0.4465455412864685
"('L',)",0.0,-0.013544335961341858
"('L',)",0.0,0.6219316124916077
"('L',)",40.0,40.99026107788086
"('L',)",0.0,0.2890515923500061
"('1',)",0.0,0.24324195086956024
"('L',)",0.0,-0.05212296545505524
"('L',)",0.0,0.616969883441925
"('L',)",0.0,0.34994810819625854
"('L',)",0.0,0.6643967032432556
"('L',)",100.0,86.27090454101562
"('L',)",0.0,0.19805948436260223
"('L',)",0.0,0.5844435095787048
"('L',)",0.0,0.33234167098999023
"('L',)",0.0,0.19627885520458221
"('L',)",0.0,0.12665896117687225
"('L',)",0.0,0.3206263780593872
"('7',)",70.0,68.81761932373047
"('L',)",0.0,0.4757348895072937
"('L',)",60.0,53.30530548095703
"('L',)",0.0,0.47043025493621826
"('L',)",40.0,40.14995193481445
"('L',)",0.0,0.21512733399868011
"('L',)",0.0,0.036705419421195984
"('L',)",0.0,0.1552073210477829
"('L',)",0.0,0.40704578161239624
"('L',)",0.0,0.1496395319700241
"('L',)",0.0,0.32863324880599976
"('L',)",0.0,0.42576098442077637
"('L',)",0.0,0.35628458857536316
"('L',)",0.0,0.4227895140647888
"('L',)",0.0,0.455876886844635
"('L',)",0.0,0.33320188522338867
"('L',)",50.0,34.584564208984375
"('L',)",0.0,0.5798036456108093
"('L',)",0.0,0.531963586807251
"('L',)",0.0,0.35383182764053345
"('L',)",40.0,44.6744270324707
"('L',)",0.0,0.3373182415962219
"('L',)",0.0,0.4631991982460022
"('L',)",0.0,0.045172318816185
"('L',)",0.0,0.2116820067167282
"('L',)",0.0,-0.20590920746326447
"('L',)",0.0,0.4123855233192444
"('L',)",0.0,0.3312093913555145
"('L',)",0.0,0.0777304619550705
"('L',)",0.0,0.3275291919708252
"('L',)",0.0,0.2559362053871155
"('L',)",0.0,0.30359721183776855
"('L',)",20.0,25.466358184814453
"('L',)",0.0,0.5897706747055054
"('L',)",30.0,28.157819747924805
"('L',)",0.0,0.4032924771308899
"('L',)",0.0,0.28165239095687866
"('L',)",60.0,60.35881423950195
"('L',)",0.0,0.35820168256759644
"('L',)",0.0,0.4283744692802429
"('L',)",0.0,0.2204226702451706
"('L',)",0.0,0.4148855209350586
"('L',)",0.0,0.5046638250350952
"('L',)",0.0,0.29078078269958496
"('L',)",0.0,0.2896239161491394
"('L',)",0.0,0.20101360976696014
"('L',)",0.0,0.17991118133068085
"('L',)",0.0,0.016448184847831726
"('L',)",80.0,67.0205078125
"('L',)",0.0,0.26277875900268555
"('L',)",0.0,0.29879653453826904
"('L',)",0.0,0.32611721754074097
"('L',)",0.0,0.47823506593704224
"('L',)",0.0,0.06984619796276093
"('L',)",90.0,85.59329986572266
"('L',)",0.0,0.49358898401260376
"('L',)",0.0,0.2512775659561157
"('L',)",40.0,38.618431091308594
"('1',)",0.0,0.4347744584083557
"('L',)",0.0,0.7862957119941711
"('2',)",0.0,0.3634396195411682
"('L',)",80.0,77.49398803710938
"('L',)",0.0,0.273529052734375
"('L',)",0.0,0.7487936615943909
"('2',)",0.0,0.1159457415342331
"('L',)",0.0,0.1568489521741867
"('L',)",0.0,0.41382986307144165
"('L',)",20.0,24.907819747924805
"('L',)",0.0,0.26622045040130615
"('L',)",0.0,0.039238378405570984
"('1',)",0.0,5.753509521484375
"('L',)",0.0,0.49823129177093506
"('1',)",0.0,0.2617957592010498
"('L',)",0.0,0.48050516843795776
"('L',)",0.0,0.43165266513824463
"('L',)",0.0,0.35339194536209106
"('L',)",0.0,0.41943615674972534
"('L',)",10.0,10.705252647399902
"('L',)",0.0,0.27621161937713623
"('L',)",90.0,84.39507293701172
"('L',)",0.0,0.13831780850887299
"('L',)",0.0,0.12909989058971405
"('2',)",0.0,3.2147650718688965
"('L',)",30.0,31.027687072753906
"('L',)",70.0,66.4715347290039
"('L',)",50.0,43.77806091308594
"('L',)",0.0,0.52944415807724
"('L',)",0.0,0.34299933910369873
"('L',)",0.0,-0.005945518612861633
"('L',)",0.0,0.46159249544143677
"('L',)",0.0,0.27222341299057007
"('L',)",0.0,0.5486272573471069
"('L',)",20.0,21.96945571899414
"('L',)",0.0,0.3034449815750122
"('L',)",0.0,0.5137526988983154
"('L',)",0.0,0.3487936854362488
"('L',)",0.0,0.26141393184661865
"('L',)",0.0,0.3520224690437317
"('L',)",0.0,0.3847019076347351
"('L',)",0.0,0.4149702191352844
"('L',)",0.0,0.29218369722366333
"('L',)",50.0,47.37052536010742
"('L',)",0.0,0.37635719776153564
"('L',)",20.0,19.596210479736328
"('L',)",0.0,0.8344578146934509
"('1',)",0.0,0.4470726251602173
"('L',)",0.0,0.2850169539451599
"('L',)",20.0,16.436540603637695
"('2',)",0.0,0.11701230704784393
"('2',)",0.0,0.33065491914749146
"('L',)",0.0,0.7752928137779236
"('L',)",0.0,0.3121480941772461
"('L',)",0.0,0.22172550857067108
"('L',)",0.0,0.3890249729156494
"('L',)",40.0,43.77141189575195
"('L',)",0.0,0.15415416657924652
"('L',)",0.0,0.45132768154144287
"('1',)",0.0,0.24714986979961395
"('L',)",20.0,20.979473114013672
"('L',)",0.0,0.47457677125930786
"('2',)",0.0,0.6032978296279907
"('L',)",0.0,0.09338633716106415
"('L',)",30.0,32.77323913574219
"('L',)",0.0,0.4663316607475281
"('L',)",0.0,0.35413700342178345
"('2',)",0.0,0.4454016089439392
"('L',)",0.0,0.34777987003326416
"('L',)",0.0,0.5436763763427734
"('L',)",0.0,0.2999005913734436
"('L',)",0.0,0.46670299768447876
"('L',)",40.0,38.62508010864258
"('L',)",0.0,0.31809765100479126
"('L',)",0.0,0.13375352323055267
"('L',)",20.0,11.013333320617676
"('L',)",0.0,0.1937061995267868
"('L',)",0.0,0.4928584098815918
"('L',)",0.0,0.3510397672653198
"('L',)",0.0,0.42394405603408813
"('L',)",50.0,53.80391311645508
"('L',)",0.0,0.3494301438331604
"('L',)",0.0,0.32516491413116455
"('L',)",0.0,0.22362159192562103
"('L',)",0.0,0.4807557463645935
"('L',)",60.0,54.1907958984375
"('L',)",0.0,0.2692933678627014
"('L',)",0.0,0.4506908655166626
"('L',)",0.0,0.31441980600357056
"('L',)",0.0,0.24537350237369537
"('L',)",0.0,0.19440589845180511
"('L',)",0.0,0.3734947144985199
"('L',)",0.0,0.3749978244304657
"('L',)",30.0,38.32419967651367
"('L',)",0.0,0.37557315826416016
"('L',)",0.0,0.21099327504634857
"('L',)",0.0,0.3830949068069458
"('L',)",0.0,0.43609124422073364
"('L',)",0.0,0.5592814683914185
"('L',)",0.0,0.24682913720607758
"('L',)",0.0,0.3698047399520874
"('L',)",0.0,0.04178081452846527
"('L',)",0.0,0.28071683645248413
"('L',)",0.0,0.22945503890514374
"('L',)",0.0,0.3459168076515198
"('L',)",0.0,0.29692649841308594
"('L',)",0.0,0.2018987387418747
"('L',)",0.0,0.32447463274002075
"('L',)",0.0,0.3658665418624878
"('L',)",0.0,0.39817947149276733
"('L',)",70.0,68.09251403808594
"('L',)",0.0,0.30903375148773193
"('L',)",0.0,-0.14677025377750397
"('L',)",30.0,35.33662796020508
"('L',)",0.0,0.29164254665374756
"('L',)",0.0,-0.13778288662433624
"('L',)",30.0,28.601394653320312
"('2',)",70.0,72.58110046386719
"('L',)",0.0,0.5102067589759827
"('L',)",0.0,0.1421065777540207
"('L',)",0.0,0.26923948526382446
"('L',)",0.0,0.16361407935619354
"('L',)",0.0,0.28226524591445923
"('L',)",0.0,0.314569354057312
"('L',)",0.0,-0.09680618345737457
"('L',)",0.0,0.47704339027404785
"('L',)",30.0,38.62211227416992
"('L',)",10.0,14.566939353942871
"('L',)",0.0,0.382643461227417
"('L',)",0.0,0.20780007541179657
"('2',)",0.0,0.35659927129745483
"('L',)",90.0,80.89651489257812
"('L',)",0.0,0.2552066445350647
"('L',)",0.0,0.21096758544445038
"('L',)",0.0,-0.22922451794147491
"('L',)",0.0,0.7057317495346069
"('L',)",0.0,0.5588046908378601
"('L',)",0.0,0.534031331539154
"('L',)",50.0,46.17461013793945
"('L',)",40.0,39.358306884765625
"('L',)",0.0,0.4127030372619629
"('L',)",0.0,0.3448922038078308
"('L',)",0.0,0.3504118323326111
"('L',)",0.0,0.1938808411359787
"('L',)",0.0,0.25625520944595337
"('L',)",0.0,0.1738099902868271
"('L',)",50.0,44.931678771972656
"('L',)",20.0,19.875328063964844
"('L',)",0.0,0.2892400622367859
"('L',)",0.0,0.3243313729763031
"('L',)",0.0,0.6088696122169495
"('L',)",0.0,1.7342842817306519
"('L',)",0.0,0.28137022256851196
"('L',)",0.0,0.446135938167572
"('L',)",30.0,27.954662322998047
"('1',)",0.0,0.23176328837871552
"('L',)",0.0,0.38077086210250854
"('L',)",0.0,0.3171355724334717
"('L',)",0.0,0.23360304534435272
"('2',)",20.0,27.708189010620117
"('L',)",40.0,56.43790054321289
"('L',)",0.0,0.31809645891189575
"('L',)",0.0,0.41232550144195557
"('L',)",0.0,0.5582906603813171
"('L',)",0.0,0.47859305143356323
"('L',)",0.0,0.339744508266449
"('L',)",0.0,-0.14629383385181427
"('L',)",0.0,-0.300068199634552
"('L',)",0.0,0.5005813241004944
"('L',)",0.0,0.29011571407318115
"('L',)",0.0,-0.07576604187488556
"('L',)",0.0,0.252127468585968
"('L',)",10.0,14.408212661743164
"('L',)",0.0,0.41895484924316406
"('L',)",0.0,0.41616690158843994
"('L',)",30.0,31.57893943786621
"('L',)",30.0,25.690340042114258
"('L',)",0.0,0.5651905536651611
"('L',)",0.0,0.4972430467605591
"('L',)",0.0,0.25997066497802734
"('L',)",0.0,0.3003392219543457
"('L',)",0.0,0.19163040816783905
"('L',)",0.0,0.27841806411743164
"('L',)",0.0,-0.11083848774433136
"('L',)",0.0,0.4203627109527588
"('L',)",0.0,0.5766072273254395
"('L',)",60.0,55.29499435424805
"('L',)",0.0,0.29186034202575684
"('L',)",30.0,29.399513244628906
"('L',)",0.0,0.4259837865829468
"('L',)",0.0,0.5272222757339478
"('L',)",40.0,39.03092575073242
"('L',)",0.0,0.48376357555389404
"('L',)",50.0,51.26571273803711
"('L',)",0.0,0.05251990258693695
"('L',)",0.0,0.3563343286514282
"('L',)",30.0,30.51991844177246
"('L',)",0.0,0.37625420093536377
"('L',)",0.0,0.8576591610908508
"('L',)",0.0,0.24208001792430878
"('L',)",80.0,80.83877563476562
"('L',)",0.0,1.9117729663848877
"('L',)",0.0,0.1590738743543625
"('L',)",0.0,0.46403199434280396
"('L',)",0.0,0.4204801917076111
"('L',)",0.0,0.3582163453102112
"('L',)",0.0,-0.004519060254096985
"('L',)",90.0,81.01148223876953
"('L',)",20.0,19.158262252807617
"('L',)",90.0,94.20350646972656
"('L',)",0.0,-0.02732492983341217
"('L',)",0.0,0.3587539792060852
"('L',)",0.0,0.2078738659620285
"('L',)",0.0,0.5221533179283142
"('L',)",0.0,0.4226795434951782
"('L',)",0.0,-0.14700062572956085
"('L',)",0.0,0.3371109366416931
"('L',)",40.0,39.72291946411133
"('L',)",0.0,0.18804167211055756
"('L',)",0.0,0.26854151487350464
"('L',)",0.0,0.32394200563430786
"('L',)",0.0,0.45812827348709106
"('L',)",0.0,0.3628643751144409
"('2',)",0.0,-0.1466396600008011
"('L',)",0.0,0.22329406440258026
"('L',)",0.0,0.05433599650859833
"('L',)",0.0,0.33993053436279297
"('L',)",0.0,0.3469746708869934
"('L',)",0.0,0.38841646909713745
"('L',)",0.0,0.2585892677307129
"('L',)",0.0,0.4599730372428894
"('L',)",0.0,0.2844458818435669
"('L',)",0.0,0.24129365384578705
"('L',)",50.0,51.58029556274414
"('2',)",70.0,69.11042022705078
"('1',)",0.0,-0.08850260078907013
"('L',)",0.0,0.35911351442337036
"('L',)",0.0,0.45730143785476685
"('L',)",0.0,0.5044844746589661
"('L',)",0.0,0.18586473166942596
"('L',)",0.0,0.260983943939209
"('L',)",0.0,0.22546912729740143
"('L',)",0.0,0.2892448306083679
"('L',)",0.0,0.35531890392303467
"('L',)",0.0,0.4337769150733948
"('L',)",0.0,0.3379485607147217
"('2',)",0.0,0.1549900621175766
"('L',)",0.0,0.18205974996089935
"('L',)",10.0,14.288150787353516
"('L',)",0.0,0.422299325466156
"('L',)",0.0,0.15136198699474335
"('3',)",10.0,10.804160118103027
"('L',)",0.0,0.25028902292251587
"('L',)",40.0,55.5526008605957
"('L',)",60.0,53.67371368408203
"('L',)",0.0,0.3583354353904724
"('L',)",0.0,0.08820484578609467
"('L',)",70.0,68.1729965209961
"('L',)",0.0,0.0645928829908371
"('L',)",0.0,0.2889125943183899
"('L',)",20.0,13.36102294921875
"('L',)",0.0,0.5375744104385376
"('L',)",0.0,0.3192043900489807
"('L',)",0.0,0.23266999423503876
"('L',)",0.0,0.18996773660182953
"('L',)",0.0,0.7591803073883057
"('L',)",0.0,0.19773446023464203
"('L',)",0.0,-0.05412425100803375
"('L',)",0.0,0.2800838351249695
"('L',)",0.0,0.29017186164855957
"('L',)",0.0,0.4712504744529724
"('L',)",0.0,0.06908325850963593
"('L',)",0.0,0.3778882622718811
"('L',)",0.0,0.19176964461803436
"('L',)",0.0,0.40119850635528564
"('L',)",0.0,0.381324827671051
"('L',)",0.0,0.4381370544433594
"('L',)",0.0,0.33386868238449097
"('L',)",0.0,0.41371119022369385
"('L',)",0.0,0.3831174969673157
"('L',)",0.0,0.3341963291168213
"('L',)",10.0,15.14221477508545
"('L',)",0.0,0.3630428910255432
"('L',)",0.0,0.26566606760025024
"('L',)",0.0,0.3429453372955322
"('L',)",0.0,0.3792276382446289
"('L',)",0.0,1.1512902975082397
"('L',)",0.0,0.36418914794921875
"('L',)",0.0,0.4230298399925232
"('L',)",0.0,0.18624602258205414
"('L',)",70.0,63.448768615722656
"('L',)",0.0,0.3370819091796875
"('L',)",10.0,10.931435585021973
"('L',)",0.0,0.39605557918548584
"('L',)",0.0,0.40095365047454834
"('9',)",0.0,0.3673086166381836
"('L',)",0.0,0.32338249683380127
"('L',)",30.0,31.156286239624023
"('L',)",0.0,0.3279581069946289
"('L',)",0.0,0.17412064969539642
"('L',)",0.0,0.3248927593231201
"('L',)",0.0,-0.13984347879886627
"('L',)",0.0,0.17778484523296356
"('L',)",60.0,57.925865173339844
"('L',)",0.0,0.568058431148529
"('L',)",0.0,0.003978058695793152
"('L',)",0.0,0.3481552004814148
"('L',)",0.0,0.6131129264831543
"('L',)",0.0,0.046442076563835144
"('L',)",80.0,73.10147094726562
"('L',)",0.0,0.5160039663314819
"('L',)",30.0,23.675260543823242
"('L',)",0.0,0.3772083520889282
"('L',)",0.0,0.4242709279060364
"('2',)",0.0,0.4322482943534851
"('L',)",0.0,0.39494508504867554
"('2',)",0.0,0.1002606600522995
"('L',)",0.0,0.6394143104553223
"('2',)",0.0,-0.12043626606464386
"('L',)",40.0,34.81572723388672
"('L',)",0.0,0.31275248527526855
"('L',)",0.0,0.3108487129211426
"('L',)",0.0,0.1614929884672165
"('L',)",0.0,0.2976909279823303
"('L',)",0.0,0.24190877377986908
"('L',)",0.0,0.5495381951332092
"('L',)",0.0,-0.03258712589740753
"('L',)",0.0,0.372933030128479
"('L',)",0.0,0.3482053875923157
"('L',)",0.0,0.3722279667854309
"('1',)",0.0,0.6680775880813599
"('L',)",60.0,57.54950714111328
"('L',)",20.0,15.432473182678223
"('L',)",0.0,0.1960887759923935
"('L',)",0.0,0.5396668910980225
"('L',)",0.0,0.3836181163787842
"('L',)",0.0,0.05583123862743378
"('L',)",40.0,38.23517990112305
"('2',)",80.0,73.09835815429688
"('L',)",0.0,0.032854482531547546
"('L',)",10.0,15.960716247558594
"('L',)",0.0,0.5199694037437439
"('2',)",0.0,0.11142425239086151
"('L',)",0.0,0.2673379182815552
"('L',)",0.0,0.31936579942703247
"('L',)",0.0,0.43845778703689575
"('L',)",20.0,18.811695098876953
"('L',)",40.0,38.3853645324707
"('L',)",0.0,0.22983966767787933
"('L',)",0.0,0.5288652777671814
"('L',)",0.0,0.35974329710006714
"('L',)",0.0,0.4590381383895874
"('L',)",0.0,0.37671056389808655
"('L',)",0.0,0.31864434480667114
"('L',)",70.0,66.4035415649414
"('L',)",0.0,0.48622119426727295
"('L',)",0.0,0.4315677285194397
"('L',)",0.0,0.36121422052383423
"('L',)",20.0,14.430913925170898
"('L',)",0.0,0.23477189242839813
"('L',)",0.0,0.5551732778549194
"('L',)",0.0,0.46779805421829224
"('L',)",0.0,0.22946332395076752
"('L',)",0.0,0.22544722259044647
"('L',)",0.0,-0.2707478404045105
"('L',)",0.0,0.3613726496696472
"('L',)",0.0,0.18527452647686005
"('L',)",50.0,48.74757766723633
"('L',)",0.0,0.3663936257362366
"('L',)",0.0,0.6843212842941284
"('L',)",90.0,86.719482421875
"('L',)",0.0,0.3013486862182617
"('L',)",0.0,0.3039092421531677
"('L',)",0.0,1.9906388521194458
"('L',)",0.0,0.3312836289405823
"('L',)",0.0,0.23229341208934784
"('L',)",0.0,0.41806238889694214
"('L',)",0.0,0.3564060926437378
"('L',)",50.0,48.31324005126953
"('L',)",0.0,0.4859759211540222
"('L',)",40.0,37.733421325683594
"('L',)",0.0,0.34550386667251587
"('L',)",0.0,0.4835447669029236
"('L',)",0.0,0.17450778186321259
"('L',)",0.0,0.24766044318675995
"('2',)",0.0,0.45615196228027344
"('L',)",0.0,0.09285180270671844
"('L',)",0.0,0.2678438425064087
"('L',)",0.0,-0.2534722685813904
"('L',)",0.0,0.5398359298706055
"('L',)",30.0,33.10061264038086
"('L',)",0.0,0.45671582221984863
"('L',)",0.0,0.3329092860221863
"('L',)",100.0,93.25513458251953
"('L',)",0.0,0.3421066999435425
"('L',)",0.0,-0.1072169691324234
"('L',)",0.0,0.357491672039032
"('L',)",0.0,0.42146849632263184
"('L',)",0.0,0.26145660877227783
"('L',)",10.0,14.123082160949707
"('L',)",0.0,0.360900342464447
"('L',)",0.0,0.05177842080593109
"('L',)",0.0,0.3136192560195923
"('L',)",0.0,0.4824777841567993
"('L',)",0.0,0.1748826950788498
"('L',)",0.0,-0.18786205351352692
"('L',)",40.0,35.17789840698242
"('L',)",0.0,0.261313259601593
"('L',)",0.0,0.5086296796798706
"('L',)",0.0,0.17519675195217133
"('L',)",0.0,0.5891637802124023
"('L',)",0.0,0.2297622412443161
"('L',)",0.0,-0.1614341288805008
"('L',)",0.0,0.455854594707489
"('L',)",0.0,0.45775365829467773
"('L',)",0.0,0.36176466941833496
"('L',)",0.0,0.4679887294769287
"('L',)",0.0,0.30671215057373047
"('L',)",0.0,0.45060330629348755
"('L',)",0.0,0.14090017974376678
"('L',)",0.0,0.512679934501648
"('L',)",0.0,0.17528502643108368
"('L',)",0.0,0.2731676697731018
"('L',)",0.0,-0.4140525460243225
"('L',)",0.0,0.3860244154930115
"('L',)",0.0,0.5681841969490051
"('L',)",20.0,25.35049819946289
"('L',)",70.0,72.95275115966797
"('L',)",0.0,0.3515649437904358
"('L',)",0.0,0.07891814410686493
"('2',)",0.0,0.38187217712402344
"('L',)",0.0,0.3580440878868103
"('L',)",0.0,0.5577114224433899
"('L',)",0.0,0.5004497766494751
"('L',)",0.0,0.49487900733947754
"('L',)",50.0,48.98415756225586
"('L',)",0.0,0.26208996772766113
"('L',)",0.0,0.3335864543914795
"('L',)",0.0,0.32191002368927
"('L',)",0.0,0.46053534746170044
"('L',)",0.0,0.011822029948234558
"('L',)",0.0,0.3819083571434021
"('L',)",0.0,0.23606280982494354
"('L',)",0.0,0.1715712994337082
"('L',)",0.0,0.38913899660110474
"('L',)",0.0,0.1805216521024704
"('L',)",0.0,0.3466449975967407
"('L',)",0.0,0.37744081020355225
"('L',)",0.0,0.10772256553173065
"('L',)",0.0,0.4807804226875305
"('L',)",0.0,0.4293162226676941
"('3',)",20.0,19.46969223022461
"('L',)",30.0,29.270183563232422
"('L',)",0.0,-0.08677442371845245
"('L',)",0.0,0.33627021312713623
"('L',)",0.0,0.3905119299888611
"('L',)",0.0,0.32421332597732544
"('L',)",0.0,0.04066406190395355
"('1',)",0.0,0.3550407290458679
"('L',)",0.0,0.22777651250362396
"('L',)",0.0,0.4118654727935791
"('L',)",80.0,70.17545318603516
"('L',)",0.0,0.2831316590309143
"('L',)",0.0,-0.12229092419147491
"('L',)",0.0,0.35051852464675903
"('L',)",0.0,2.467820167541504
"('L',)",0.0,-0.16788335144519806
"('L',)",0.0,0.1576521247625351
"('L',)",0.0,-0.1552523523569107
"('L',)",0.0,0.13702432811260223
"('L',)",80.0,72.2053451538086
"('L',)",0.0,0.33089500665664673
"('2',)",0.0,-0.07711608707904816
"('7',)",30.0,27.559158325195312
"('L',)",0.0,0.6985553503036499
"('L',)",0.0,0.4164119362831116
"('L',)",0.0,0.4419511556625366
"('L',)",0.0,0.43794339895248413
"('L',)",0.0,0.3753374218940735
"('L',)",0.0,-0.2141735702753067
"('L',)",0.0,0.5241036415100098
"('L',)",0.0,-0.2348039299249649
"('L',)",0.0,0.21093206107616425
"('L',)",0.0,0.3055983781814575
"('L',)",0.0,0.36633360385894775
"('L',)",0.0,0.4225007891654968
"('L',)",0.0,0.4604411721229553
"('L',)",0.0,-0.2684990167617798
"('L',)",0.0,0.2597517967224121
"('L',)",30.0,29.510496139526367
"('L',)",90.0,83.48082733154297
"('L',)",0.0,-0.028641894459724426
"('L',)",30.0,35.496761322021484
"('L',)",0.0,0.7651896476745605
"('L',)",0.0,0.5221614241600037
"('L',)",0.0,0.31518781185150146
"('L',)",0.0,-0.01595182716846466
"('L',)",0.0,0.42210912704467773
"('L',)",0.0,0.5309866666793823
"('L',)",0.0,0.4179016947746277
"('L',)",0.0,0.8345299959182739
"('L',)",0.0,0.2824946641921997
"('L',)",0.0,0.6059044003486633
"('L',)",0.0,0.31435954570770264
"('L',)",20.0,12.654509544372559
"('L',)",0.0,-0.15643174946308136
"('L',)",0.0,0.39115649461746216
"('L',)",0.0,0.4505000710487366
"('L',)",0.0,0.4567604660987854
"('L',)",0.0,0.24309377372264862
"('L',)",0.0,-0.3713873624801636
"('2',)",0.0,-0.07399065792560577
"('L',)",20.0,20.818452835083008
"('L',)",0.0,0.3211386799812317
"('L',)",60.0,68.14012145996094
"('L',)",0.0,0.33188456296920776
"('L',)",0.0,0.35384684801101685
"('L',)",50.0,53.163177490234375
"('L',)",0.0,0.4401477575302124
"('L',)",0.0,0.4336877465248108
"('L',)",0.0,0.4058711528778076
"('L',)",0.0,0.2869792580604553
"('L',)",0.0,0.4745447635650635
"('2',)",20.0,21.90076446533203
"('L',)",0.0,0.485848605632782
"('2',)",0.0,0.5212680101394653
"('L',)",0.0,0.3993784189224243
"('L',)",0.0,0.17060486972332
"('L',)",30.0,28.380170822143555
"('L',)",0.0,0.43769580125808716
"('L',)",0.0,0.2848893404006958
"('2',)",0.0,0.3095631003379822
"('L',)",0.0,0.7089870572090149
"('L',)",0.0,-0.03301943838596344
"('L',)",0.0,0.37730398774147034
"('L',)",0.0,0.49462705850601196
"('L',)",0.0,0.2643412947654724
"('L',)",0.0,0.38798242807388306
"('L',)",0.0,0.32070887088775635
"('L',)",0.0,0.3956630825996399
"('L',)",0.0,0.3307037353515625
"('L',)",60.0,59.05413818359375
"('L',)",0.0,0.16825149953365326
"('L',)",100.0,50.895423889160156
"('L',)",0.0,0.3931848406791687
"('L',)",0.0,0.4950898289680481
"('L',)",10.0,11.51344108581543
"('L',)",0.0,0.23088012635707855
"('L',)",10.0,11.162104606628418
"('L',)",80.0,72.71012878417969
"('L',)",0.0,0.4576337933540344
"('L',)",0.0,0.3149598240852356
"('L',)",0.0,0.7000115513801575
"('2',)",10.0,11.684325218200684
"('L',)",0.0,0.37742555141448975
"('L',)",0.0,-0.1618160754442215
"('1',)",0.0,0.19701968133449554
"('L',)",0.0,-0.10029812157154083
"('L',)",0.0,0.17685823142528534
"('L',)",0.0,0.2743425965309143
"('L',)",0.0,0.5497058629989624
"('L',)",0.0,-0.06627203524112701
"('L',)",0.0,0.4686621427536011
"('L',)",0.0,0.44779860973358154
"('L',)",0.0,0.20429657399654388
"('L',)",0.0,0.20492325723171234
"('L',)",0.0,-0.19546277821063995
"('2',)",0.0,0.21015582978725433
"('L',)",10.0,14.028461456298828
"('L',)",0.0,0.22730384767055511
"('L',)",0.0,0.3045210838317871
"('L',)",0.0,0.5238770842552185
"('L',)",0.0,0.4208466410636902
"('L',)",0.0,0.634612500667572
"('L',)",0.0,0.2982557415962219
"('L',)",0.0,0.20352952182292938
"('L',)",0.0,-0.1640915423631668
"('L',)",0.0,0.26654064655303955
"('L',)",90.0,80.54603576660156
"('L',)",0.0,0.2998555302619934
"('L',)",0.0,0.1843768209218979
"('L',)",0.0,0.2161184400320053
"('L',)",0.0,0.502869725227356
"('L',)",0.0,0.45534175634384155
"('L',)",0.0,0.35404038429260254
"('L',)",0.0,0.289913535118103
"('L',)",0.0,0.4252510070800781
"('L',)",0.0,0.4760476350784302
"('L',)",0.0,0.22973309457302094
"('2',)",50.0,64.42031860351562
"('L',)",0.0,0.48995816707611084
"('2',)",0.0,0.4684407114982605
"('L',)",0.0,-0.018712356686592102
"('L',)",0.0,0.2769715189933777
"('L',)",30.0,35.05288314819336
"('L',)",70.0,67.36084747314453
"('L',)",0.0,0.1871398538351059
"('L',)",0.0,0.37037134170532227
"('L',)",0.0,0.3937864899635315
"('L',)",0.0,0.3275102972984314
"('L',)",0.0,0.29844754934310913
"('L',)",0.0,0.3163321614265442
"('2',)",0.0,0.5922783613204956
"('L',)",0.0,0.12871728837490082
"('L',)",0.0,0.3240755796432495
"('L',)",0.0,0.6671945452690125
"('L',)",0.0,0.2841482162475586
"('L',)",0.0,0.2391624003648758
"('L',)",0.0,0.3383505940437317
"('L',)",0.0,0.2581697106361389
"('L',)",0.0,0.24391357600688934
"('L',)",0.0,0.27441972494125366
"('L',)",20.0,16.894634246826172
"('2',)",30.0,39.08207321166992
"('L',)",0.0,0.9838764071464539
"('L',)",0.0,0.2604830265045166
"('L',)",0.0,0.30176687240600586
"('L',)",40.0,38.249359130859375
"('L',)",10.0,13.779349327087402
"('L',)",0.0,0.4159809947013855
"('L',)",0.0,0.24314962327480316
"('L',)",0.0,-0.09494216740131378
"('L',)",0.0,0.5763516426086426
"('L',)",0.0,0.38764429092407227
"('L',)",0.0,0.7298673391342163
"('L',)",30.0,27.452665328979492
"('L',)",20.0,21.307819366455078
"('L',)",0.0,0.2095053642988205
"('L',)",0.0,0.4585950970649719
"('L',)",0.0,0.11701492965221405
"('L',)",0.0,0.2560580372810364
"('L',)",0.0,0.4051583409309387
"('L',)",0.0,0.2981066107749939
"('L',)",0.0,0.2832416892051697
"('L',)",0.0,0.5265197157859802
"('L',)",0.0,0.27536624670028687
"('L',)",0.0,0.30633801221847534
"('L',)",0.0,0.431721568107605
"('L',)",0.0,0.2934837341308594
"('L',)",0.0,0.30116021633148193
"('1',)",0.0,0.3032771348953247
"('L',)",0.0,0.560142457485199
"('L',)",90.0,81.66826629638672
"('L',)",20.0,23.01748275756836
"('L',)",40.0,47.12757110595703
"('L',)",0.0,0.13761644065380096
"('L',)",0.0,0.4564361572265625
"('L',)",0.0,0.37586575746536255
"('L',)",0.0,0.4387670159339905
"('L',)",0.0,0.4020724892616272
"('L',)",0.0,0.3208945393562317
"('L',)",0.0,0.4372832775115967
"('L',)",80.0,83.6341781616211
"('L',)",0.0,0.2482161670923233
"('L',)",0.0,-0.10529465973377228
"('L',)",0.0,0.2939532995223999
"('L',)",0.0,0.5642784237861633
"('L',)",0.0,0.2793874740600586
"('L',)",0.0,-0.062487438321113586
"('L',)",0.0,0.06481210887432098
"('L',)",0.0,0.5363225340843201
"('L',)",0.0,0.4657922387123108
"('L',)",0.0,0.14991240203380585
"('L',)",0.0,0.2550804615020752
"('L',)",0.0,0.4947754740715027
"('L',)",0.0,0.1278846710920334
"('L',)",0.0,0.08863477408885956
"('2',)",0.0,0.25374168157577515
"('L',)",0.0,0.48535144329071045
"('L',)",0.0,0.37802743911743164
"('L',)",0.0,0.2204616814851761
"('L',)",0.0,0.5031228065490723
"('L',)",0.0,0.586178183555603
"('L',)",0.0,0.35986328125
"('L',)",0.0,0.510988175868988
"('L',)",20.0,21.68991470336914
"('L',)",40.0,32.80274200439453
"('L',)",0.0,0.402407169342041
"('L',)",0.0,0.5094419717788696
"('L',)",0.0,0.43135517835617065
"('L',)",0.0,0.25023001432418823
"('L',)",10.0,11.830288887023926
"('L',)",0.0,0.0818052738904953
"('L',)",0.0,0.4320678114891052
"('L',)",0.0,0.2907729744911194
"('L',)",0.0,0.24109132587909698
"('L',)",0.0,0.31471842527389526
"('L',)",0.0,0.5648303031921387
"('L',)",0.0,0.3956931233406067
"('L',)",20.0,23.24125862121582
"('L',)",0.0,0.7124475836753845
"('L',)",0.0,0.20239786803722382
"('L',)",0.0,-0.04255808889865875
"('L',)",0.0,0.29553258419036865
"('1',)",20.0,25.140588760375977
"('L',)",0.0,0.5315238833427429
"('L',)",0.0,0.38311201333999634
"('L',)",0.0,0.6201887726783752
"('L',)",90.0,85.31689453125
"('L',)",0.0,0.4375292658805847
"('L',)",0.0,0.38124966621398926
"('L',)",0.0,0.2538011074066162
"('L',)",0.0,0.009143754839897156
"('L',)",0.0,0.2954416275024414
"('L',)",90.0,85.2314453125
"('L',)",0.0,0.12527422606945038
"('L',)",0.0,0.5935580730438232
"('L',)",20.0,17.969619750976562
"('L',)",0.0,0.319271445274353
"('L',)",0.0,0.34780722856521606
"('L',)",0.0,0.43623578548431396
"('L',)",0.0,0.4125599265098572
"('1',)",0.0,0.27536487579345703
"('L',)",0.0,0.5056146383285522
"('L',)",0.0,0.2835415005683899
"('L',)",0.0,0.3182825446128845
"('L',)",80.0,82.50997924804688
"('L',)",0.0,0.35547345876693726
"('L',)",20.0,19.904462814331055
"('L',)",60.0,51.37575912475586
"('L',)",0.0,0.2989301085472107
"('1',)",0.0,0.2388993352651596
"('L',)",0.0,0.224493607878685
"('L',)",0.0,0.4619404673576355
"('L',)",0.0,0.07964299619197845
"('L',)",0.0,-0.029840782284736633
"('L',)",0.0,-0.2864874005317688
"('L',)",0.0,0.3367014527320862
"('L',)",0.0,0.356026291847229
"('L',)",0.0,0.4108748435974121
"('L',)",0.0,-0.14713896811008453
"('L',)",0.0,0.3499125838279724
"('L',)",10.0,11.601127624511719
"('L',)",0.0,0.3194468021392822
"('L',)",0.0,0.0024354904890060425
"('L',)",0.0,0.3312010169029236
"('3',)",0.0,0.544866144657135
"('L',)",0.0,0.6726657152175903
"('L',)",0.0,0.1614852398633957
"('L',)",0.0,0.3323627710342407
"('L',)",50.0,49.554466247558594
"('L',)",0.0,0.49176687002182007
"('L',)",60.0,54.71448516845703
"('L',)",0.0,0.43853962421417236
"('L',)",0.0,0.6550403237342834
"('L',)",0.0,0.21836797893047333
"('L',)",0.0,0.43596041202545166
"('L',)",0.0,0.4466913938522339
"('L',)",0.0,0.22761039435863495
"('L',)",0.0,0.4615822434425354
"('L',)",0.0,0.014205023646354675
"('L',)",0.0,0.06739668548107147
"('2',)",0.0,0.6138635873794556
"('L',)",0.0,-0.20757468044757843
"('L',)",0.0,0.42253661155700684
"('L',)",0.0,0.5644159913063049
"('L',)",10.0,10.219480514526367
"('L',)",0.0,0.32457709312438965
"('L',)",10.0,18.356752395629883
"('L',)",0.0,0.2964631915092468
"('L',)",0.0,0.5059272050857544
"('L',)",30.0,26.7159423828125
"('L',)",0.0,0.5965102314949036
"('L',)",0.0,0.203347846865654
"('2',)",0.0,0.6505302786827087
"('L',)",0.0,0.29253852367401123
"('L',)",0.0,0.28051894903182983
"('1',)",0.0,0.4130289554595947
"('1',)",0.0,0.16344688832759857
"('L',)",0.0,0.39850133657455444
"('L',)",0.0,-0.10381563007831573
"('L',)",0.0,0.3670051097869873
"('L',)",0.0,0.5546340346336365
"('L',)",10.0,13.180708885192871
"('L',)",0.0,0.2617296576499939
"('L',)",0.0,0.3621654510498047
"('L',)",0.0,0.25431227684020996
"('L',)",0.0,0.3848775029182434
"('L',)",0.0,0.36154770851135254
"('L',)",0.0,0.030096575617790222
"('L',)",0.0,0.3243476152420044
"('2',)",0.0,0.3844316601753235
"('L',)",0.0,-0.02840442955493927
"('L',)",0.0,0.38915568590164185
"('1',)",0.0,0.2344520539045334
"('L',)",0.0,0.034537121653556824
"('L',)",60.0,61.97075653076172
"('L',)",0.0,-0.1304599791765213
"('L',)",90.0,69.65123748779297
"('L',)",0.0,0.16639737784862518
"('1',)",60.0,50.79153060913086
"('L',)",0.0,0.7097498178482056
"('L',)",10.0,9.690176963806152
"('L',)",0.0,0.18542294204235077
"('L',)",0.0,0.5176233053207397
"('L',)",0.0,0.15742044150829315
"('L',)",90.0,82.67062377929688
"('L',)",90.0,82.99241638183594
"('L',)",0.0,0.19142954051494598
"('L',)",0.0,0.18566302955150604
"('L',)",0.0,0.09794537723064423
"('L',)",0.0,0.16367964446544647
"('L',)",0.0,0.2417849749326706
"('L',)",0.0,0.3219490647315979
"('2',)",0.0,0.35213983058929443
"('L',)",0.0,0.32687270641326904
"('L',)",0.0,0.45528435707092285
"('L',)",0.0,0.3345576524734497
"('L',)",0.0,0.12248270213603973
"('L',)",0.0,0.12234501540660858
"('L',)",0.0,0.0852387398481369
"('L',)",80.0,85.77222442626953
"('L',)",0.0,0.2585145831108093
"('L',)",0.0,0.5720265507698059
"('L',)",0.0,-0.16262085735797882
"('L',)",0.0,0.3862370550632477
"('L',)",0.0,0.35391443967819214
"('2',)",0.0,0.24437539279460907
"('L',)",0.0,0.3320404291152954
"('L',)",0.0,-0.14553631842136383
"('L',)",0.0,0.0016808956861495972
"('L',)",0.0,0.44126391410827637
"('L',)",40.0,40.6679801940918
"('L',)",0.0,0.5069836378097534
"('L',)",0.0,0.4057888388633728
"('L',)",0.0,0.2976992130279541
"('L',)",0.0,0.21710674464702606
"('L',)",0.0,0.36843445897102356
"('L',)",0.0,0.3226401209831238
"('L',)",0.0,0.30024105310440063
"('L',)",0.0,0.13790051639080048
"('L',)",0.0,-0.05148382484912872
"('L',)",0.0,0.3895270824432373
"('L',)",0.0,0.3216012120246887
"('L',)",0.0,0.47147828340530396
"('2',)",20.0,20.57353973388672
"('L',)",30.0,30.4171085357666
"('L',)",0.0,0.2903406023979187
"('L',)",60.0,57.463619232177734
"('L',)",0.0,0.32298821210861206
"('L',)",0.0,0.3197348117828369
"('L',)",0.0,0.7122656106948853
"('L',)",0.0,0.2042563408613205
"('L',)",0.0,0.4054740071296692
"('L',)",0.0,0.16249512135982513
"('L',)",0.0,-0.5803133845329285
"('L',)",0.0,0.39499491453170776
"('L',)",0.0,0.4395796060562134
"('L',)",0.0,0.34026092290878296
"('L',)",0.0,0.3329610824584961
"('L',)",0.0,0.40910303592681885
"('L',)",0.0,0.12009410560131073
"('L',)",30.0,32.18426513671875
"('L',)",0.0,0.16861848533153534
"('L',)",0.0,-0.11088903248310089
"('L',)",0.0,0.25857943296432495
"('L',)",0.0,0.3609153628349304
"('2',)",0.0,0.25818878412246704
"('L',)",20.0,21.380434036254883
"('L',)",0.0,0.6782547831535339
"('L',)",0.0,0.37342941761016846
"('L',)",0.0,0.3574325740337372
"('L',)",0.0,0.22058670222759247
"('L',)",0.0,-0.1224483996629715
"('2',)",0.0,0.32612013816833496
"('L',)",0.0,0.4236248731613159
"('L',)",0.0,-0.0970040112733841
"('L',)",0.0,0.11477653682231903
"('L',)",0.0,-0.18819303810596466
"('L',)",0.0,0.4667900800704956
"('L',)",0.0,0.5287690758705139
"('L',)",0.0,0.18642555177211761
"('L',)",0.0,-0.07659848034381866
"('6',)",0.0,0.2209821194410324
"('L',)",0.0,0.21228794753551483
"('L',)",0.0,0.36322468519210815
"('L',)",0.0,-0.22477038204669952
"('2',)",0.0,0.4028586149215698
"('L',)",0.0,0.3091069459915161
"('L',)",0.0,0.1118716448545456
"('L',)",0.0,0.36101454496383667
"('L',)",0.0,0.4919501543045044
"('L',)",10.0,15.98157024383545
"('L',)",0.0,0.40659064054489136
"('L',)",0.0,0.2740437388420105
"('L',)",0.0,0.2661946415901184
"('L',)",0.0,0.16796182096004486
"('L',)",0.0,0.3857322335243225
"('L',)",90.0,87.95145416259766
"('2',)",0.0,0.45121610164642334
"('L',)",0.0,0.3102792501449585
"('2',)",0.0,0.6800777316093445
"('L',)",0.0,0.45513802766799927
"('L',)",30.0,27.662578582763672
"('L',)",0.0,0.5287131667137146
"('L',)",0.0,-0.17568965256214142
"('L',)",0.0,0.1883217841386795
"('L',)",0.0,0.36901938915252686
"('L',)",0.0,0.44299644231796265
"('L',)",0.0,0.3790351152420044
"('L',)",0.0,0.44438713788986206
"('L',)",0.0,-0.0018463879823684692
"('L',)",0.0,0.5626758933067322
"('L',)",0.0,0.25838375091552734
"('L',)",50.0,50.37845993041992
"('L',)",0.0,0.16990958154201508
"('L',)",0.0,-0.03882749378681183
"('L',)",0.0,0.2571027874946594
"('L',)",0.0,0.3994191884994507
"('L',)",0.0,0.4338333010673523
"('L',)",10.0,17.019344329833984
"('L',)",0.0,-0.14480765163898468
"('L',)",0.0,0.19533370435237885
"('L',)",20.0,14.454200744628906
"('L',)",0.0,0.2594883441925049
"('L',)",0.0,0.3193250894546509
"('L',)",0.0,0.14051108062267303
"('L',)",50.0,50.64044952392578
"('L',)",0.0,0.37318068742752075
"('L',)",0.0,0.2837219834327698
"('L',)",0.0,0.010035201907157898
"('L',)",0.0,0.27835673093795776
"('2',)",0.0,0.05282847583293915
"('L',)",0.0,0.16311024129390717
"('L',)",0.0,0.2573851943016052
"('L',)",30.0,32.244815826416016
"('L',)",0.0,0.2739534378051758
"('L',)",0.0,0.3846234679222107
"('L',)",0.0,0.03727130591869354
"('L',)",0.0,0.34719669818878174
"('L',)",0.0,0.08360938727855682
"('L',)",0.0,0.17134778201580048
"('L',)",0.0,-0.13649173080921173
"('L',)",0.0,0.2448413223028183
"('L',)",90.0,83.64352416992188
"('L',)",40.0,39.3654899597168
"('1',)",0.0,0.2070067971944809
"('1',)",20.0,18.386856079101562
"('L',)",0.0,0.31539469957351685
"('L',)",0.0,0.3895648717880249
"('L',)",0.0,0.37907838821411133
"('L',)",10.0,11.255934715270996
"('L',)",0.0,0.3993493914604187
"('L',)",0.0,0.31395459175109863
"('L',)",0.0,0.16912446916103363
"('L',)",0.0,0.3583836555480957
"('L',)",0.0,0.2610996961593628
"('L',)",0.0,0.26921361684799194
"('L',)",0.0,0.4841558337211609
"('L',)",0.0,0.4247308373451233
"('L',)",0.0,0.39387786388397217
"('L',)",0.0,0.4527058005332947
"('L',)",60.0,61.33138656616211
"('L',)",0.0,0.26285284757614136
"('L',)",30.0,27.437856674194336
"('L',)",0.0,0.20985965430736542
"('L',)",0.0,0.2992698550224304
"('L',)",0.0,0.3026721477508545
"('L',)",0.0,0.4114919900894165
"('L',)",0.0,0.48779594898223877
"('6',)",0.0,0.325553834438324
"('L',)",20.0,22.01357078552246
"('L',)",0.0,0.29304730892181396
"('L',)",0.0,0.34963923692703247
"('L',)",20.0,20.094350814819336
"('L',)",0.0,0.4712033271789551
"('L',)",0.0,0.8252114653587341
"('L',)",0.0,0.4392430782318115
"('L',)",0.0,0.31513702869415283
"('2',)",0.0,0.14002178609371185
"('L',)",0.0,0.4430665373802185
"('L',)",0.0,0.1535315364599228
"('L',)",0.0,0.4028279781341553
"('L',)",0.0,0.41895627975463867
"('L',)",0.0,-0.18083257973194122
"('L',)",0.0,0.5088202357292175
"('2',)",0.0,0.3728736639022827
"('L',)",0.0,0.3668251633644104
"('L',)",0.0,0.3271711468696594
"('L',)",0.0,0.41930198669433594
"('L',)",40.0,35.478267669677734
"('L',)",0.0,0.13504473865032196
"('L',)",0.0,0.5615139603614807
"('L',)",60.0,58.567649841308594
"('L',)",0.0,0.359883189201355
"('L',)",0.0,0.13355354964733124
"('L',)",0.0,-0.19218213856220245
"('L',)",0.0,0.07726256549358368
"('L',)",0.0,0.4744681119918823
"('L',)",0.0,0.45446521043777466
"('L',)",30.0,27.5882511138916
"('L',)",0.0,0.3677546977996826
"('L',)",0.0,0.354531466960907
"('L',)",0.0,0.3338842988014221
"('L',)",0.0,0.30907487869262695
"('L',)",0.0,0.4725276827812195
"('L',)",40.0,41.90214538574219
"('L',)",0.0,0.4270861744880676
"('L',)",0.0,0.4096795916557312
"('1',)",0.0,0.3516021966934204
"('L',)",0.0,0.19865469634532928
"('L',)",0.0,0.4426056742668152
"('L',)",0.0,0.29437774419784546
"('L',)",0.0,0.38430893421173096
"('L',)",0.0,0.6106364130973816
"('L',)",20.0,20.617528915405273
"('L',)",0.0,0.3963998556137085
"('L',)",0.0,0.3627142906188965
"('L',)",0.0,0.4598037004470825
"('1',)",0.0,0.7406750321388245
"('L',)",0.0,0.5550574064254761
"('2',)",0.0,0.4373024106025696
"('L',)",0.0,-0.07455654442310333
"('L',)",0.0,0.33120250701904297
"('1',)",0.0,0.43764328956604004
"('L',)",0.0,0.4089120030403137
"('L',)",0.0,0.46631383895874023
"('2',)",0.0,0.22289018332958221
"('L',)",20.0,13.826769828796387
"('L',)",30.0,28.710351943969727
"('L',)",0.0,0.12808184325695038
"('L',)",0.0,0.5416110157966614
"('L',)",0.0,0.2635596990585327
"('L',)",80.0,70.55248260498047
"('L',)",0.0,0.4550347328186035
"('2',)",0.0,0.26330238580703735
"('L',)",0.0,0.28804638981819153
"('L',)",0.0,-0.07739372551441193
"('L',)",0.0,0.1635756939649582
"('L',)",0.0,0.3518303632736206
"('L',)",20.0,23.351909637451172
"('L',)",0.0,0.19690899550914764
"('1',)",0.0,0.2321445792913437
"('L',)",0.0,-0.2977268099784851
"('L',)",0.0,1.178792119026184
"('L',)",0.0,-0.16241712868213654
"('L',)",0.0,0.338309645652771
"('L',)",0.0,0.48778021335601807
"('L',)",0.0,0.31690800189971924
"('L',)",0.0,0.2766016721725464
"('L',)",0.0,0.37930840253829956
"('L',)",0.0,0.4192320704460144
"('L',)",20.0,28.9759521484375
"('1',)",0.0,0.3526868224143982
"('L',)",0.0,0.4885942339897156
"('L',)",0.0,0.39411461353302
"('L',)",0.0,0.5099620819091797
"('L',)",50.0,47.12410354614258
"('L',)",0.0,0.25165170431137085
"('L',)",0.0,0.3972926735877991
"('L',)",0.0,0.5187443494796753
"('L',)",0.0,0.37731045484542847
"('L',)",0.0,0.44867217540740967
"('L',)",90.0,84.42547607421875
"('L',)",10.0,11.718868255615234
"('L',)",50.0,49.430118560791016
"('L',)",0.0,0.28564023971557617
"('L',)",20.0,28.901687622070312
"('1',)",0.0,0.3831339478492737
"('L',)",0.0,0.17141662538051605
"('L',)",0.0,0.3640615940093994
"('L',)",0.0,0.5608698725700378
"('L',)",0.0,0.2003779262304306
"('L',)",20.0,20.745695114135742
"('L',)",0.0,0.1455705612897873
"('L',)",0.0,0.33998435735702515
"('L',)",0.0,0.3727603554725647
"('L',)",0.0,0.43325018882751465
"('L',)",0.0,0.2405078262090683
"('L',)",0.0,0.31284499168395996
"('1',)",0.0,0.35287266969680786
"('L',)",0.0,0.1569790095090866
"('1',)",0.0,0.10960672795772552
"('L',)",0.0,0.024846121668815613
"('1',)",80.0,76.14630126953125
"('L',)",0.0,0.32637888193130493
"('L',)",0.0,0.2703174948692322
"('L',)",0.0,0.198886439204216
"('L',)",0.0,0.3343355059623718
"('L',)",0.0,-0.22541125118732452
"('L',)",10.0,12.252490043640137
"('L',)",0.0,0.3834623694419861
"('L',)",0.0,0.26881134510040283
"('L',)",0.0,0.3719756007194519
"('L',)",50.0,53.91796875
"('L',)",90.0,83.5223159790039
"('1',)",0.0,0.3586950898170471
"('L',)",0.0,0.32277989387512207
"('L',)",0.0,0.12766627967357635
"('L',)",0.0,0.0002457350492477417
"('L',)",0.0,0.3459113836288452
"('L',)",0.0,-0.23548097908496857
"('L',)",40.0,40.845062255859375
"('L',)",0.0,0.4846179485321045
"('L',)",40.0,36.95478820800781
"('L',)",0.0,0.4428015947341919
"('L',)",0.0,0.7707143425941467
"('7',)",60.0,49.39812469482422
"('L',)",0.0,0.3795016407966614
"('L',)",0.0,0.32774925231933594
"('L',)",0.0,0.043938085436820984
"('L',)",0.0,0.5326384902000427
"('L',)",0.0,0.43031615018844604
"('L',)",0.0,0.2553853392601013
"('L',)",20.0,18.55182647705078
"('L',)",0.0,0.25476449728012085
"('L',)",0.0,0.24851812422275543
"('L',)",0.0,0.4397715926170349
"('L',)",0.0,0.3963521122932434
"('L',)",60.0,59.96855545043945
"('1',)",20.0,19.475095748901367
"('L',)",0.0,0.6813016533851624
"('L',)",0.0,0.5095121264457703
"('L',)",40.0,42.309932708740234
"('L',)",30.0,21.297229766845703
"('L',)",0.0,0.3908005952835083
"('2',)",0.0,0.39201682806015015
"('L',)",30.0,32.5916862487793
"('L',)",0.0,0.22978328168392181
"('L',)",0.0,0.5422658324241638
"('L',)",0.0,0.15651552379131317
"('2',)",50.0,44.49081039428711
"('L',)",0.0,0.2696642279624939
"('L',)",0.0,0.031157180666923523
"('L',)",0.0,0.32541078329086304
"('L',)",0.0,0.09353737533092499
"('L',)",20.0,29.802024841308594
"('L',)",0.0,0.4266802668571472
"('L',)",0.0,0.21903465688228607
"('L',)",0.0,0.2754635214805603
"('L',)",0.0,0.14695100486278534
"('L',)",0.0,0.32450658082962036
"('L',)",0.0,0.36798661947250366
"('L',)",0.0,0.19567082822322845
"('L',)",0.0,0.446064293384552
"('L',)",0.0,0.42394429445266724
"('L',)",0.0,0.32987767457962036
"('L',)",80.0,75.12213134765625
"('L',)",0.0,0.44656771421432495
"('L',)",20.0,27.343244552612305
"('L',)",0.0,0.3138653039932251
"('L',)",0.0,0.19599024951457977
"('L',)",0.0,0.5345557332038879
"('L',)",0.0,0.33878380060195923
"('L',)",0.0,0.27244699001312256
"('L',)",0.0,0.18169008195400238
"('L',)",0.0,0.31287944316864014
"('L',)",0.0,0.0809897631406784
"('L',)",0.0,0.41060948371887207
"('L',)",0.0,0.47888875007629395
"('L',)",0.0,0.47910231351852417
"('L',)",0.0,0.2872470021247864
"('L',)",20.0,21.26932144165039
"('L',)",0.0,0.3886107802391052
"('L',)",10.0,17.734912872314453
"('L',)",0.0,0.11730627715587616
"('L',)",0.0,0.06456856429576874
"('L',)",0.0,0.5942843556404114
"('L',)",40.0,43.49661636352539
"('L',)",0.0,0.28216665983200073
"('L',)",0.0,-0.3056178689002991
"('L',)",0.0,0.3072773218154907
"('L',)",10.0,12.734427452087402
"('L',)",0.0,0.43749719858169556
"('L',)",0.0,0.49524152278900146
"('L',)",30.0,25.447893142700195
"('L',)",0.0,0.20087496936321259
"('L',)",0.0,0.15110741555690765
"('L',)",0.0,0.3147066831588745
"('L',)",40.0,33.21644592285156
"('L',)",20.0,22.1131591796875
"('L',)",0.0,0.47942429780960083
"('L',)",0.0,0.3359190821647644
"('L',)",0.0,0.18853329122066498
"('L',)",0.0,-0.05528463423252106
"('L',)",0.0,0.4478415250778198
"('L',)",0.0,0.3691312074661255
"('L',)",0.0,0.09063415229320526
"('L',)",0.0,0.1910344809293747
"('L',)",70.0,63.11186218261719
"('L',)",0.0,0.267173707485199
"('L',)",0.0,0.279716432094574
"('L',)",0.0,0.1517743319272995
"('L',)",0.0,0.4085509777069092
"('L',)",0.0,0.1654842346906662
"('L',)",0.0,0.33260226249694824
"('L',)",0.0,0.027701660990715027
"('L',)",0.0,0.15610210597515106
"('1',)",0.0,0.4069545269012451
"('L',)",0.0,0.24592773616313934
"('L',)",0.0,0.4652438163757324
"('L',)",60.0,54.11824417114258
"('L',)",80.0,73.3832778930664
"('L',)",0.0,0.21771059930324554
"('L',)",0.0,0.17875812947750092
"('L',)",0.0,0.4926849603652954
"('L',)",10.0,13.165437698364258
"('L',)",0.0,0.1259242743253708
"('L',)",10.0,14.008684158325195
"('L',)",0.0,0.3885834217071533
"('L',)",0.0,0.18270151317119598
"('L',)",0.0,0.28888410329818726
"('L',)",100.0,88.97718048095703
"('L',)",0.0,0.3976665139198303
"('L',)",0.0,0.25781965255737305
"('L',)",0.0,0.33148515224456787
"('L',)",0.0,0.21256707608699799
"('L',)",0.0,0.3881530165672302
"('1',)",80.0,70.2298583984375
"('L',)",60.0,48.21721649169922
"('L',)",0.0,0.475242018699646
"('L',)",10.0,16.2486629486084
"('L',)",0.0,0.5764482617378235
"('L',)",0.0,0.5081673860549927
"('L',)",0.0,0.32319432497024536
"('L',)",0.0,0.15259335935115814
"('L',)",0.0,0.20074574649333954
"('L',)",80.0,80.48998260498047
"('L',)",0.0,-0.03733415901660919
"('L',)",0.0,0.00655953586101532
"('L',)",30.0,32.37115478515625
"('L',)",0.0,0.28280919790267944
"('L',)",0.0,0.2834399938583374
"('L',)",10.0,16.63142967224121
"('L',)",0.0,0.4547731280326843
"('L',)",40.0,46.913055419921875
"('L',)",0.0,0.013091251254081726
"('L',)",0.0,0.3305407762527466
"('L',)",0.0,0.20317427814006805
"('L',)",0.0,0.3852446675300598
"('L',)",0.0,0.46647536754608154
"('6',)",0.0,0.2911307215690613
"('L',)",0.0,0.25778496265411377
"('L',)",0.0,-0.16455669701099396
"('L',)",0.0,0.07143692672252655
"('L',)",0.0,0.3044155240058899
"('L',)",0.0,0.18979279696941376
"('L',)",0.0,0.3549073338508606
"('L',)",0.0,0.47691309452056885
"('L',)",20.0,23.48154640197754
"('L',)",0.0,0.3047676682472229
"('L',)",0.0,0.2818182110786438
"('L',)",0.0,0.2649109959602356
"('L',)",0.0,0.40757471323013306
"('L',)",0.0,0.28861528635025024
"('L',)",0.0,0.40953952074050903
"('L',)",0.0,0.4035056233406067
"('L',)",10.0,16.64082145690918
"('L',)",0.0,0.3692023754119873
"('L',)",20.0,26.526308059692383
"('L',)",0.0,0.3835807740688324
"('L',)",0.0,0.22049228847026825
"('L',)",0.0,0.25723809003829956
"('L',)",0.0,-0.12165994942188263
"('1',)",0.0,0.18338768184185028
"('L',)",0.0,0.232242152094841
"('L',)",0.0,0.10903523862361908
"('L',)",0.0,0.30740559101104736
"('7',)",80.0,73.26850128173828
"('L',)",0.0,0.24901126325130463
"('L',)",0.0,-0.08534534275531769
"('L',)",30.0,29.688203811645508
"('L',)",40.0,32.51156997680664
"('L',)",0.0,0.4548971652984619
"('L',)",0.0,0.33469676971435547
"('L',)",0.0,0.429684579372406
"('L',)",0.0,0.38996410369873047
"('L',)",0.0,-0.10565169155597687
"('L',)",0.0,0.03806690871715546
"('L',)",0.0,0.26532864570617676
"('L',)",0.0,0.3026663064956665
"('L',)",0.0,0.0178631991147995
"('L',)",0.0,0.3043155074119568
"('L',)",0.0,0.35494083166122437
"('L',)",0.0,0.3034172058105469
"('L',)",0.0,0.37402892112731934
"('1',)",20.0,31.971294403076172
"('L',)",40.0,48.708251953125
"('L',)",0.0,0.4342690110206604
"('L',)",0.0,0.34691423177719116
"('1',)",0.0,-0.020488813519477844
"('7',)",0.0,-0.05969090759754181
"('L',)",0.0,0.305502712726593
"('L',)",40.0,37.060089111328125
"('L',)",0.0,0.4655972123146057
"('L',)",0.0,0.3539573550224304
"('L',)",0.0,0.33091849088668823
"('L',)",90.0,79.85254669189453
"('L',)",0.0,0.6795932650566101
"('L',)",0.0,0.33388233184814453
"('L',)",90.0,84.22567749023438
"('L',)",40.0,34.93684387207031
"('L',)",0.0,0.4364931583404541
"('L',)",0.0,0.3913053274154663
"('L',)",0.0,0.23063020408153534
"('L',)",0.0,0.1725180596113205
"('L',)",0.0,0.2964560389518738
"('L',)",0.0,0.3463362455368042
"('L',)",0.0,0.2099652737379074
"('L',)",0.0,0.30997711420059204
"('L',)",0.0,0.12923304736614227
"('L',)",0.0,0.435696005821228
"('L',)",0.0,0.40076321363449097
"('L',)",0.0,0.2662786841392517
"('L',)",0.0,0.04999570548534393
"('L',)",0.0,0.5761348605155945
"('L',)",30.0,27.316682815551758
"('L',)",0.0,0.2437565177679062
"('L',)",0.0,-0.021421149373054504
"('L',)",0.0,-0.017853155732154846
"('L',)",0.0,0.3461245894432068
"('L',)",90.0,84.21267700195312
"('L',)",0.0,-0.06272824108600616
"('L',)",0.0,0.39776307344436646
"('L',)",0.0,0.5058979392051697
"('L',)",0.0,0.5802047848701477
"('L',)",0.0,0.5283411741256714
"('L',)",0.0,-0.06107927858829498
"('L',)",0.0,-0.17313571274280548
"('L',)",0.0,0.5956006646156311
"('L',)",30.0,25.66057586669922
"('L',)",0.0,0.19330690801143646
"('L',)",10.0,13.701461791992188
"('L',)",0.0,0.3188078999519348
"('L',)",60.0,61.82041931152344
"('2',)",0.0,0.31348156929016113
"('L',)",0.0,0.3337056636810303
"('L',)",0.0,-0.2173701673746109
"('L',)",0.0,0.3000439405441284
"('L',)",0.0,0.31512725353240967
"('L',)",0.0,0.3233987092971802
"('L',)",0.0,0.28427332639694214
"('L',)",90.0,82.46762084960938
"('L',)",0.0,0.315407395362854
"('L',)",0.0,0.37741899490356445
"('L',)",0.0,0.3918900489807129
"('L',)",0.0,0.3283604383468628
"('L',)",0.0,0.16439871490001678
"('L',)",0.0,0.387165367603302
"('L',)",0.0,0.37773561477661133
"('L',)",0.0,0.25698232650756836
"('L',)",0.0,0.3962699770927429
"('L',)",0.0,0.554802417755127
"('L',)",0.0,0.30832189321517944
"('L',)",0.0,0.10661689937114716
"('L',)",0.0,0.2506648898124695
"('L',)",0.0,0.30022984743118286
"('L',)",40.0,31.157106399536133
"('L',)",0.0,0.10317866504192352
"('L',)",0.0,0.3429524302482605
"('L',)",0.0,0.6346520781517029
"('L',)",0.0,0.42440474033355713
"('L',)",0.0,0.49269241094589233
"('L',)",0.0,0.25549477338790894
"('L',)",0.0,0.05612759292125702
"('L',)",0.0,-0.22127456963062286
"('L',)",0.0,0.2630387544631958
"('L',)",0.0,0.42420828342437744
"('L',)",0.0,0.2764923572540283
"('L',)",0.0,0.5195707082748413
"('L',)",0.0,0.5002904534339905
"('L',)",0.0,0.2645145654678345
"('L',)",0.0,-0.1309407502412796
"('L',)",0.0,0.26008325815200806
"('L',)",0.0,0.24349848926067352
"('L',)",0.0,0.26448506116867065
"('L',)",0.0,0.5648678541183472
"('L',)",0.0,0.132041797041893
"('L',)",0.0,0.33981430530548096
"('L',)",0.0,0.3745591640472412
"('1',)",10.0,13.183757781982422
"('L',)",0.0,0.40356022119522095
"('L',)",0.0,0.41577059030532837
"('L',)",0.0,0.5029922127723694
"('2',)",0.0,0.019401535391807556
"('L',)",0.0,0.3308018445968628
"('6',)",0.0,0.22003601491451263
"('L',)",0.0,0.3857887387275696
"('L',)",0.0,0.4827535152435303
"('L',)",10.0,11.413067817687988
"('L',)",0.0,-0.10192693769931793
"('L',)",0.0,0.35778748989105225
"('L',)",0.0,-0.08026708662509918
"('L',)",70.0,70.315185546875
"('L',)",0.0,-0.253704309463501
"('L',)",10.0,9.84128475189209
"('L',)",0.0,0.4808926582336426
"('L',)",0.0,0.5415160059928894
"('L',)",0.0,0.42114120721817017
"('L',)",60.0,58.85796356201172
"('L',)",0.0,0.5101730227470398
"('L',)",10.0,11.052163124084473
"('L',)",0.0,0.4286192059516907
"('L',)",0.0,0.5260080695152283
"('L',)",60.0,57.74968719482422
"('L',)",0.0,0.3513525426387787
"('L',)",0.0,0.3900420665740967
"('L',)",0.0,0.41381698846817017
"('L',)",20.0,20.235319137573242
"('L',)",0.0,0.0935923308134079
"('L',)",0.0,0.342376172542572
"('L',)",0.0,0.17351190745830536
"('L',)",0.0,0.16010765731334686
"('L',)",0.0,0.704211950302124
"('L',)",0.0,0.383794903755188
"('9',)",0.0,0.3824906349182129
"('L',)",0.0,0.2872016429901123
"('L',)",0.0,0.32206523418426514
"('L',)",0.0,0.34466075897216797
"('L',)",0.0,0.28877323865890503
"('L',)",0.0,0.3601102828979492
"('L',)",0.0,0.3624286949634552
"('L',)",0.0,0.26763880252838135
"('L',)",0.0,-0.08578367531299591
"('L',)",0.0,0.42332857847213745
"('L',)",0.0,0.4480484127998352
"('L',)",0.0,-0.1113753467798233
"('L',)",0.0,-0.16092725098133087
"('L',)",0.0,-0.1474272757768631
"('L',)",0.0,0.08397893607616425
"('2',)",0.0,0.19837163388729095
"('L',)",0.0,0.3463435769081116
"('1',)",0.0,0.38166046142578125
"('L',)",10.0,14.553343772888184
"('2',)",0.0,0.27488452196121216
"('L',)",0.0,0.020439252257347107
"('L',)",0.0,0.29465270042419434
"('L',)",0.0,0.33326077461242676
"('L',)",0.0,-0.03204704821109772
"('L',)",0.0,0.33875685930252075
"('L',)",80.0,79.30955505371094
"('L',)",0.0,-0.0516178160905838
"('L',)",0.0,0.24246267974376678
"('L',)",40.0,37.71840286254883
"('L',)",0.0,0.19958405196666718
"('L',)",0.0,0.30018579959869385
"('L',)",0.0,0.5575389862060547
"('L',)",0.0,0.1354653686285019
"('L',)",0.0,0.3109642267227173
"('L',)",60.0,29.563098907470703
"('2',)",0.0,0.16880230605602264
"('L',)",0.0,0.12015502154827118
"('L',)",0.0,0.407825231552124
"('L',)",40.0,42.74249267578125
"('L',)",0.0,0.4672209620475769
"('L',)",0.0,-0.013732388615608215
"('L',)",0.0,0.41149288415908813
"('L',)",0.0,0.311689555644989
"('L',)",0.0,0.2744225859642029
"('L',)",0.0,0.32071179151535034
"('L',)",0.0,0.17567025125026703
"('L',)",20.0,15.205519676208496
"('L',)",0.0,0.16833345592021942
"('1',)",0.0,0.3722459077835083
"('L',)",0.0,0.18060295283794403
"('L',)",0.0,0.27698272466659546
"('L',)",70.0,71.9598617553711
"('L',)",0.0,0.5072240829467773
"('L',)",0.0,0.3964496850967407
"('L',)",0.0,0.37806129455566406
"('L',)",90.0,87.34040069580078
"('L',)",40.0,44.07366943359375
"('L',)",40.0,38.40441131591797
"('L',)",90.0,81.73286437988281
"('L',)",0.0,0.6145750880241394
"('L',)",0.0,0.36779630184173584
"('L',)",0.0,0.26666104793548584
"('L',)",0.0,0.40521949529647827
"('L',)",0.0,0.7814342379570007
"('L',)",0.0,0.17226998507976532
"('L',)",70.0,65.29206085205078
"('L',)",0.0,-0.2523185610771179
"('1',)",0.0,0.16766373813152313
"('L',)",0.0,0.45737409591674805
"('L',)",0.0,-0.22400696575641632
"('L',)",0.0,0.48395389318466187
"('L',)",0.0,0.4335753917694092
"('1',)",0.0,0.2412181943655014
"('L',)",0.0,0.3363543748855591
"('L',)",0.0,0.37839949131011963
"('L',)",0.0,0.40616464614868164
"('1',)",0.0,0.4635002613067627
"('L',)",0.0,0.36637306213378906
"('1',)",0.0,0.1472495049238205
"('L',)",0.0,0.3085935115814209
"('L',)",0.0,0.2863870859146118
"('L',)",0.0,0.22056923806667328
"('L',)",0.0,0.20321856439113617
"('L',)",0.0,0.37509065866470337
"('L',)",0.0,0.5333998799324036
"('L',)",0.0,0.36973774433135986
"('L',)",80.0,75.3386001586914
"('L',)",0.0,0.40778636932373047
"('L',)",0.0,0.2661592364311218
"('L',)",0.0,0.3675670623779297
"('L',)",0.0,0.46778780221939087
"('L',)",0.0,0.4665408730506897
"('L',)",50.0,56.57591247558594
"('L',)",30.0,30.200397491455078
"('1',)",0.0,0.36378294229507446
"('L',)",0.0,0.25497323274612427
"('L',)",0.0,0.3077125549316406
"('L',)",0.0,0.1467476338148117
"('L',)",0.0,0.25143158435821533
"('L',)",0.0,0.3545154929161072
"('L',)",0.0,0.1282973736524582
"('L',)",0.0,0.4778962731361389
"('L',)",0.0,0.2218593806028366
"('L',)",0.0,0.4955980181694031
"('L',)",0.0,0.45859813690185547
"('L',)",0.0,-0.0997592955827713
"('L',)",0.0,0.19803451001644135
"('L',)",0.0,0.24169127643108368
"('L',)",0.0,0.47966986894607544
"('L',)",0.0,0.19595865905284882
"('L',)",0.0,0.2952149510383606
"('L',)",0.0,0.2790188193321228
"('L',)",0.0,0.3934479355812073
"('L',)",0.0,0.041776105761528015
"('L',)",60.0,57.33158874511719
"('L',)",0.0,0.5089039206504822
"('L',)",0.0,0.39932727813720703
"('L',)",0.0,0.516788899898529
"('L',)",0.0,0.3779100775718689
"('L',)",0.0,0.37558406591415405
"('L',)",0.0,0.5195329189300537
"('L',)",0.0,0.3932214379310608
"('L',)",0.0,0.30204880237579346
"('L',)",0.0,0.33028751611709595
"('L',)",40.0,34.13033676147461
"('L',)",0.0,0.3308332562446594
"('L',)",70.0,72.97722625732422
"('L',)",10.0,11.536151885986328
"('L',)",0.0,0.3164505958557129
"('L',)",0.0,0.8580188751220703
"('L',)",0.0,0.5373719334602356
"('L',)",0.0,0.43614423274993896
"('L',)",0.0,0.41461843252182007
"('L',)",0.0,0.3559103012084961
"('L',)",40.0,40.73012924194336
"('L',)",30.0,30.36208724975586
"('L',)",0.0,0.30690300464630127
"('L',)",0.0,0.3858385682106018
"('L',)",0.0,0.09010832011699677
"('L',)",0.0,0.3886677026748657
"('2',)",0.0,0.18446604907512665
"('L',)",0.0,0.30725520849227905
"('L',)",0.0,0.458204448223114
"('L',)",0.0,0.3169982433319092
"('L',)",0.0,0.37161850929260254
"('L',)",0.0,0.46454155445098877
"('L',)",80.0,83.61612701416016
"('L',)",0.0,0.27555418014526367
"('L',)",0.0,0.030031129717826843
"('L',)",0.0,0.5442336797714233
"('L',)",0.0,0.24777613580226898
"('L',)",20.0,20.650211334228516
"('L',)",40.0,37.338768005371094
"('L',)",0.0,0.4244171380996704
"('L',)",0.0,0.24874447286128998
"('L',)",0.0,0.4074365496635437
"('L',)",50.0,57.00847244262695
"('L',)",0.0,8.815922737121582
"('2',)",0.0,0.17799584567546844
"('L',)",0.0,-0.12496794760227203
"('L',)",0.0,0.38363707065582275
"('L',)",0.0,0.30009758472442627
"('L',)",0.0,0.44510847330093384
"('L',)",20.0,20.25731086730957
"('L',)",50.0,50.10358810424805
"('L',)",0.0,0.062211260199546814
"('L',)",0.0,0.3171207308769226
"('L',)",0.0,0.6632959842681885
"('L',)",0.0,0.2231236845254898
"('L',)",0.0,-0.20707900822162628
"('L',)",0.0,0.056218311190605164
"('L',)",0.0,0.37920916080474854
"('L',)",0.0,0.47074252367019653
"('L',)",0.0,0.13277922570705414
"('L',)",0.0,0.40119409561157227
"('1',)",60.0,56.41459655761719
"('L',)",0.0,0.2536296248435974
"('L',)",0.0,0.3639686107635498
"('L',)",0.0,0.33578407764434814
"('L',)",0.0,0.5346276164054871
"('L',)",10.0,10.6116943359375
"('L',)",80.0,71.76490020751953
"('L',)",0.0,0.27713698148727417
"('L',)",0.0,0.34905707836151123
"('2',)",0.0,0.36465948820114136
"('L',)",0.0,0.4749327301979065
"('9',)",0.0,0.304027259349823
"('L',)",0.0,-0.19476397335529327
"('L',)",40.0,42.5136833190918
"('L',)",0.0,0.44027918577194214
"('L',)",0.0,0.20849357545375824
"('L',)",0.0,0.3221489191055298
"('L',)",0.0,0.3300003409385681
"('L',)",0.0,0.4783799648284912
"('L',)",0.0,-0.07178749144077301
"('L',)",0.0,0.53630131483078
"('L',)",0.0,0.2870495319366455
"('L',)",0.0,-0.07181902229785919
"('L',)",0.0,0.008339211344718933
"('L',)",0.0,0.15658561885356903
"('L',)",90.0,86.77986145019531
"('L',)",0.0,0.25436675548553467
"('L',)",20.0,22.171770095825195
"('L',)",0.0,0.4509860873222351
"('L',)",0.0,0.5158409476280212
"('L',)",0.0,0.35173970460891724
"('L',)",0.0,0.5332042574882507
"('L',)",0.0,1.1248774528503418
"('L',)",0.0,0.3271982669830322
"('L',)",0.0,0.4106300473213196
"('2',)",0.0,0.432889461517334
"('L',)",0.0,0.366274893283844
"('L',)",40.0,49.02823257446289
"('L',)",0.0,0.3884255290031433
"('L',)",0.0,0.26100289821624756
"('L',)",0.0,0.284885048866272
"('L',)",0.0,0.37061136960983276
"('L',)",80.0,77.787841796875
"('L',)",0.0,0.1275048702955246
"('L',)",0.0,0.3768874406814575
"('L',)",0.0,0.2845759987831116
"('1',)",0.0,0.37081366777420044
"('1',)",0.0,0.38569092750549316
"('L',)",0.0,0.2703350782394409
"('L',)",0.0,0.443983793258667
"('L',)",0.0,0.3855087161064148
"('L',)",0.0,0.16837100684642792
"('L',)",0.0,0.15299604833126068
"('L',)",0.0,-0.12854833900928497
"('L',)",0.0,0.1761699765920639
"('L',)",0.0,0.40080416202545166
"('L',)",0.0,0.25047653913497925
"('L',)",0.0,0.239741250872612
"('L',)",0.0,0.44301360845565796
"('L',)",0.0,0.4335101246833801
"('L',)",0.0,0.4022213816642761
"('L',)",0.0,0.26695680618286133
"('L',)",0.0,0.20083729922771454
"('1',)",0.0,0.10180239379405975
"('L',)",0.0,0.5431349873542786
"('L',)",0.0,0.40842968225479126
"('L',)",0.0,0.16057316958904266
"('L',)",0.0,0.417355477809906
"('L',)",0.0,0.30209773778915405
"('7',)",0.0,0.24416081607341766
"('2',)",0.0,0.1795216053724289
"('L',)",0.0,0.29577964544296265
"('L',)",0.0,0.15559355914592743
"('L',)",60.0,59.062408447265625
"('L',)",40.0,41.48926544189453
"('L',)",0.0,0.2769925594329834
"('L',)",0.0,0.1785443276166916
"('L',)",0.0,0.19751565158367157
"('L',)",0.0,0.30120187997817993
"('L',)",0.0,-0.12093885242938995
"('L',)",80.0,79.22566223144531
"('L',)",0.0,0.3590528964996338
"('L',)",20.0,32.156898498535156
"('L',)",0.0,0.3207349181175232
"('L',)",0.0,0.5593100786209106
"('2',)",0.0,0.3599357604980469
"('L',)",0.0,0.46613025665283203
"('L',)",0.0,0.3622528910636902
"('L',)",0.0,0.03470425307750702
"('L',)",0.0,0.24738465249538422
"('L',)",0.0,0.5524357557296753
"('L',)",0.0,0.6495959162712097
"('L',)",0.0,0.12944571673870087
"('L',)",0.0,0.3871813416481018
"('L',)",0.0,0.4355934262275696
"('L',)",0.0,0.15654794871807098
"('6',)",0.0,0.4852437376976013
"('L',)",0.0,0.28956472873687744
"('L',)",0.0,0.3767860531806946
"('L',)",0.0,0.08410422503948212
"('1',)",0.0,0.3120150566101074
"('L',)",0.0,0.22095446288585663
"('L',)",20.0,20.582197189331055
"('L',)",0.0,-0.3661080002784729
"('L',)",0.0,0.40025705099105835
"('L',)",0.0,0.000400349497795105
"('L',)",0.0,0.44069039821624756
"('L',)",0.0,0.3738657832145691
"('L',)",0.0,0.23128418624401093
"('L',)",0.0,0.4816547632217407
"('L',)",0.0,0.35355114936828613
"('L',)",80.0,76.72957611083984
"('2',)",0.0,0.42335665225982666
"('L',)",0.0,-0.26286906003952026
"('L',)",0.0,-0.012742355465888977
"('L',)",0.0,0.2537960410118103
"('L',)",50.0,38.24516677856445
"('L',)",0.0,0.5186470150947571
"('L',)",0.0,0.12028627097606659
"('L',)",30.0,22.67726707458496
"('L',)",0.0,0.16952209174633026
"('L',)",0.0,0.5068961381912231
"('L',)",0.0,0.4085148572921753
"('L',)",0.0,0.3097150921821594
"('L',)",0.0,0.2548467516899109
"('L',)",0.0,0.3531675934791565
"('L',)",0.0,0.17416225373744965
"('L',)",0.0,0.37853550910949707
"('L',)",0.0,2.060447931289673
"('L',)",0.0,0.31500422954559326
"('L',)",0.0,0.5138702392578125
"('L',)",0.0,0.2929465174674988
"('L',)",0.0,0.1702130287885666
"('L',)",0.0,0.17916052043437958
"('L',)",0.0,0.26905786991119385
"('L',)",0.0,0.22392301261425018
"('L',)",0.0,0.43781644105911255
"('L',)",0.0,0.5513880848884583
"('L',)",0.0,-0.16229023039340973
"('L',)",0.0,0.484671950340271
"('L',)",0.0,-0.13518817722797394
"('2',)",0.0,0.4799323081970215
"('L',)",0.0,0.2545562982559204
"('1',)",0.0,0.25265127420425415
"('L',)",0.0,0.2570057511329651
"('L',)",30.0,30.208515167236328
"('L',)",0.0,-0.2833150029182434
"('L',)",0.0,0.3568117022514343
"('L',)",0.0,0.1528281420469284
"('L',)",50.0,49.74484634399414
"('L',)",0.0,0.11912553012371063
"('L',)",0.0,-0.15182717144489288
"('L',)",0.0,1.1324423551559448
"('L',)",0.0,0.3099559545516968
"('3',)",0.0,0.2145530730485916
"('L',)",0.0,0.5144893527030945
"('L',)",0.0,0.20008306205272675
"('L',)",50.0,46.36705017089844
"('L',)",20.0,28.251792907714844
"('L',)",0.0,0.3428012728691101
"('L',)",0.0,-0.0336119681596756
"('L',)",0.0,0.3901407718658447
"('2',)",0.0,0.19006197154521942
"('L',)",0.0,0.36520135402679443
"('L',)",0.0,0.5722442269325256
"('1',)",0.0,0.33869266510009766
"('L',)",0.0,0.3817545175552368
"('L',)",0.0,0.280217707157135
"('L',)",0.0,0.40699827671051025
"('L',)",0.0,0.5360854268074036
"('L',)",0.0,0.21968774497509003
"('L',)",0.0,0.35260647535324097
"('L',)",0.0,0.41305482387542725
"('L',)",0.0,0.3105927109718323
"('L',)",0.0,0.4004347324371338
"('L',)",0.0,0.47332489490509033
"('L',)",80.0,81.17860412597656
"('L',)",0.0,0.5261960625648499
"('L',)",0.0,0.11979798972606659
"('L',)",0.0,0.49947625398635864
"('L',)",0.0,0.2482406347990036
"('L',)",0.0,0.3946576714515686
"('L',)",0.0,0.7194246649742126
"('L',)",0.0,0.4122353196144104
"('2',)",0.0,0.777421236038208
"('L',)",0.0,0.39745187759399414
"('L',)",0.0,0.2842409610748291
"('L',)",0.0,0.38627731800079346
"('L',)",0.0,0.03987984359264374
"('L',)",0.0,0.35824573040008545
"('L',)",0.0,0.15915994346141815
"('L',)",0.0,0.08225290477275848
"('L',)",40.0,36.01176834106445
"('L',)",0.0,0.2526615858078003
"('L',)",0.0,0.3671674132347107
"('L',)",0.0,0.5279635787010193
"('L',)",0.0,0.3151159882545471
"('2',)",0.0,0.07036493718624115
"('L',)",0.0,0.26814377307891846
"('L',)",0.0,0.426482617855072
"('L',)",0.0,0.4381890892982483
"('L',)",0.0,0.11548362672328949
"('L',)",30.0,34.113616943359375
"('L',)",20.0,15.0818510055542
"('L',)",0.0,0.08131735026836395
"('L',)",0.0,0.10811375081539154
"('L',)",20.0,17.057588577270508
"('L',)",0.0,0.3932163119316101
"('2',)",0.0,0.3562754988670349
"('L',)",0.0,0.3934327960014343
"('2',)",0.0,0.6324113607406616
"('L',)",0.0,0.47102993726730347
"('L',)",0.0,0.2483617514371872
"('L',)",40.0,39.53645324707031
"('L',)",0.0,0.2735521197319031
"('L',)",40.0,37.00587844848633
"('L',)",30.0,29.224313735961914
"('L',)",0.0,0.8286882042884827
"('L',)",0.0,0.20533894002437592
"('L',)",0.0,0.48780566453933716
"('L',)",0.0,0.3198344111442566
"('2',)",0.0,0.3993140459060669
"('L',)",0.0,0.2720257639884949
"('L',)",0.0,0.18990294635295868
"('L',)",0.0,0.6087110042572021
"('L',)",0.0,0.4210047721862793
"('L',)",0.0,0.48507314920425415
"('2',)",0.0,0.5529223680496216
"('L',)",30.0,40.240474700927734
"('L',)",0.0,0.5019243955612183
"('L',)",0.0,0.3435118794441223
"('L',)",0.0,0.5687757730484009
"('L',)",0.0,0.41244322061538696
"('L',)",20.0,25.36656951904297
"('9',)",0.0,0.14096485078334808
"('L',)",0.0,0.35708826780319214
"('L',)",0.0,-0.02938087284564972
"('L',)",0.0,0.3547039031982422
"('L',)",0.0,0.6113282442092896
"('L',)",0.0,0.574690580368042
"('L',)",0.0,0.3686351776123047
"('1',)",50.0,44.598445892333984
"('L',)",0.0,0.2821587920188904
"('L',)",0.0,0.289376437664032
"('L',)",0.0,0.2990454435348511
"('L',)",0.0,0.11976496875286102
"('L',)",0.0,0.45344388484954834
"('L',)",0.0,0.28323811292648315
"('1',)",0.0,0.28981077671051025
"('L',)",0.0,0.055385276675224304
"('L',)",0.0,0.3110029697418213
"('L',)",0.0,0.5539329051971436
"('L',)",0.0,0.07300214469432831
"('L',)",20.0,14.031620025634766
"('L',)",0.0,0.3447617292404175
"('L',)",20.0,15.26222038269043
"('L',)",40.0,32.672767639160156
"('L',)",0.0,0.28186213970184326
"('L',)",0.0,0.2635183334350586
"('L',)",0.0,0.34968799352645874
"('L',)",0.0,0.24880944192409515
"('2',)",0.0,0.32516658306121826
"('L',)",0.0,-0.2663494348526001
"('L',)",10.0,11.61457347869873
"('L',)",0.0,0.22877953946590424
"('L',)",0.0,0.30054181814193726
"('L',)",0.0,0.264271080493927
"('L',)",0.0,0.39694058895111084
"('L',)",0.0,0.050508901476860046
"('L',)",0.0,0.24043260514736176
"('L',)",20.0,20.78087615966797
"('L',)",30.0,33.58330154418945
"('L',)",0.0,0.49498873949050903
"('L',)",0.0,0.4529755115509033
"('L',)",0.0,0.2700156569480896
"('L',)",40.0,37.41440963745117
"('L',)",40.0,38.67518997192383
"('L',)",0.0,-0.10814137756824493
"('L',)",0.0,0.36961716413497925
"('L',)",0.0,0.2974260449409485
"('L',)",0.0,0.3394051790237427
"('L',)",0.0,0.23575396835803986
"('L',)",0.0,0.2947794795036316
"('L',)",0.0,0.2409941405057907
"('L',)",70.0,68.03289794921875
"('L',)",0.0,0.4067886471748352
"('L',)",40.0,40.14353942871094
"('L',)",0.0,0.19451765716075897
"('L',)",0.0,0.47250258922576904
"('L',)",0.0,0.10948888957500458
"('L',)",0.0,0.3773841857910156
"('L',)",0.0,0.3851185441017151
"('L',)",0.0,0.2925071716308594
"('L',)",0.0,-0.03946520388126373
"('L',)",40.0,38.128170013427734
"('L',)",0.0,0.2761521339416504
"('L',)",0.0,0.5069370865821838
"('L',)",0.0,0.4887930154800415
"('L',)",0.0,0.3731461763381958
"('L',)",0.0,0.44928818941116333
"('L',)",0.0,0.5310692191123962
"('L',)",0.0,-0.16534949839115143
"('L',)",0.0,0.009296104311943054
"('2',)",0.0,0.3375406563282013
"('L',)",0.0,0.25588828325271606
"('L',)",0.0,0.31363582611083984
"('L',)",0.0,0.2978193163871765
"('L',)",0.0,0.4572024345397949
"('L',)",0.0,0.3789183497428894
"('L',)",30.0,25.40692138671875
"('L',)",0.0,-0.05208249390125275
"('L',)",0.0,0.3220210075378418
"('L',)",0.0,0.3770671486854553
"('L',)",0.0,0.3860512375831604
"('L',)",0.0,0.40226876735687256
"('L',)",0.0,0.4945676326751709
"('L',)",0.0,0.2819465398788452
"('L',)",10.0,13.546038627624512
"('L',)",0.0,0.1887361854314804
"('L',)",0.0,0.4568491578102112
"('L',)",0.0,0.43667805194854736
"('L',)",0.0,0.3521738052368164
"('L',)",0.0,0.40195828676223755
"('L',)",0.0,-0.18062205612659454
"('L',)",0.0,0.46473103761672974
"('L',)",0.0,1.5085583925247192
"('L',)",0.0,0.34916919469833374
"('L',)",40.0,32.20152282714844
"('L',)",0.0,0.321633517742157
"('L',)",80.0,74.52570343017578
"('L',)",0.0,0.5221756100654602
"('L',)",0.0,0.5426421165466309
"('L',)",60.0,59.031227111816406
"('L',)",0.0,0.24633945524692535
"('L',)",0.0,0.015026494860649109
"('L',)",0.0,0.3114579916000366
"('L',)",0.0,0.5178492069244385
"('L',)",0.0,0.11352495849132538
"('L',)",0.0,0.4250336289405823
"('L',)",0.0,0.47049659490585327
"('L',)",0.0,0.33519184589385986
"('L',)",0.0,0.14475803077220917
"('L',)",0.0,0.6438937783241272
"('L',)",0.0,0.49724888801574707
"('L',)",0.0,0.27040964365005493
"('L',)",0.0,0.359382688999176
"('L',)",0.0,1.1759244203567505
"('2',)",0.0,0.06803552806377411
"('L',)",40.0,36.51213455200195
"('L',)",0.0,-0.22300608456134796
"('L',)",0.0,0.1502964347600937
"('L',)",0.0,0.2638285756111145
"('2',)",0.0,0.2929304242134094
"('L',)",0.0,0.44605982303619385
"('L',)",0.0,0.21564428508281708
"('L',)",0.0,-0.012377098202705383
"('L',)",0.0,0.09125129878520966
"('L',)",0.0,0.3564690947532654
"('L',)",0.0,-0.06509663164615631
"('L',)",0.0,0.07663969695568085
"('L',)",0.0,0.41819506883621216
"('L',)",0.0,0.47113728523254395
"('L',)",0.0,0.2876814603805542
"('L',)",0.0,0.33583974838256836
"('L',)",30.0,28.82036781311035
"('L',)",0.0,0.4078977704048157
"('L',)",0.0,0.49254417419433594
"('L',)",0.0,0.5321987867355347
"('L',)",0.0,0.17658261954784393
"('L',)",0.0,0.359389066696167
"('L',)",0.0,0.42174607515335083
"('L',)",0.0,0.6230062246322632
"('L',)",0.0,0.38754647970199585
"('L',)",0.0,0.3132978677749634
"('2',)",0.0,0.3340628743171692
"('L',)",0.0,0.405225932598114
"('L',)",0.0,-0.038595154881477356
"('2',)",0.0,-0.3144529461860657
"('L',)",20.0,26.020845413208008
"('L',)",0.0,0.25195151567459106
"('L',)",0.0,0.4960836172103882
"('L',)",0.0,0.17741064727306366
"('L',)",0.0,0.32783323526382446
"('L',)",0.0,0.25884538888931274
"('L',)",0.0,0.2862638831138611
"('L',)",0.0,0.2775099277496338
"('L',)",0.0,0.19754211604595184
"('L',)",20.0,20.200740814208984
"('L',)",0.0,0.39903151988983154
"('L',)",0.0,0.4035717248916626
"('L',)",10.0,13.661452293395996
"('L',)",0.0,0.5848844647407532
"('L',)",0.0,0.31621891260147095
"('L',)",0.0,0.301680326461792
"('L',)",0.0,0.5070986151695251
"('1',)",40.0,37.96782684326172
"('L',)",0.0,0.8184632658958435
"('L',)",0.0,0.8761100769042969
"('L',)",30.0,26.03609848022461
"('L',)",30.0,34.67607879638672
"('L',)",40.0,42.00567626953125
"('L',)",0.0,0.39695239067077637
"('L',)",0.0,0.361688494682312
"('L',)",0.0,0.23735056817531586
"('L',)",0.0,0.2789599299430847
"('L',)",0.0,0.26325857639312744
"('L',)",0.0,0.38525813817977905
"('L',)",0.0,0.41553568840026855
"('L',)",0.0,0.328999400138855
"('L',)",0.0,0.5052034854888916
"('L',)",0.0,0.2920750379562378
"('L',)",0.0,0.570545494556427
"('2',)",0.0,0.6729891300201416
"('L',)",0.0,0.3420572280883789
"('L',)",0.0,0.488057017326355
"('L',)",0.0,0.20459412038326263
"('L',)",0.0,0.332275927066803
"('L',)",0.0,0.3481072187423706
"('L',)",0.0,0.3226747512817383
"('L',)",0.0,0.5119686722755432
"('L',)",0.0,0.1946709007024765
"('L',)",20.0,15.205437660217285
"('L',)",0.0,0.40509140491485596
"('L',)",0.0,0.36115169525146484
"('L',)",0.0,0.23978255689144135
"('L',)",0.0,1.2864927053451538
"('L',)",0.0,0.37065327167510986
"('L',)",0.0,0.1585317701101303
"('L',)",0.0,0.26670408248901367
"('L',)",0.0,0.3498713970184326
"('L',)",90.0,82.25625610351562
"('L',)",0.0,0.37299925088882446
"('L',)",0.0,0.3505510687828064
"('L',)",0.0,0.6012697815895081
"('L',)",0.0,0.3338295817375183
"('L',)",10.0,12.298787117004395
"('L',)",10.0,14.109618186950684
"('L',)",0.0,0.36334455013275146
"('L',)",0.0,0.3360002040863037
"('L',)",50.0,57.490386962890625
"('L',)",10.0,13.78838062286377
"('L',)",0.0,-0.40746188163757324
"('L',)",0.0,0.5279704332351685
"('L',)",0.0,0.20253686606884003
"('L',)",0.0,0.2770081162452698
"('L',)",0.0,0.4922279119491577
"('L',)",0.0,0.45786434412002563
"('L',)",70.0,68.76563262939453
"('L',)",0.0,0.3920106887817383
"('L',)",0.0,0.17115603387355804
"('2',)",80.0,77.93328094482422
"('L',)",0.0,0.4410221576690674
"('L',)",0.0,0.29408103227615356
"('L',)",0.0,0.41172486543655396
"('L',)",0.0,0.23609109222888947
"('L',)",0.0,0.38391542434692383
"('L',)",0.0,0.3089320659637451
"('L',)",0.0,-0.04261423647403717
"('L',)",0.0,0.2564118504524231
"('L',)",0.0,0.4871772527694702
"('L',)",0.0,0.3309115171432495
"('L',)",0.0,0.044769927859306335
"('L',)",0.0,0.3402051627635956
"('L',)",10.0,14.288013458251953
"('2',)",0.0,0.00871555507183075
"('L',)",0.0,0.28799474239349365
"('L',)",0.0,0.09521131217479706
"('L',)",0.0,0.36580586433410645
"('L',)",30.0,24.409090042114258
"('L',)",0.0,1.089564561843872
"('L',)",0.0,0.2608354687690735
"('L',)",0.0,0.3874480724334717
"('L',)",0.0,0.3845474123954773
"('L',)",10.0,13.178203582763672
"('L',)",60.0,53.85246658325195
"('9',)",0.0,0.3318917751312256
"('L',)",50.0,52.4694938659668
"('L',)",0.0,0.365078866481781
"('1',)",0.0,0.42196565866470337
"('L',)",0.0,0.07467673718929291
"('L',)",0.0,0.20763365924358368
"('L',)",0.0,0.3573734760284424
"('L',)",0.0,0.4335935711860657
"('L',)",0.0,0.2651445269584656
"('L',)",0.0,0.31636327505111694
"('L',)",0.0,0.09363220632076263
"('L',)",0.0,0.35384273529052734
"('L',)",0.0,0.3403422236442566
"('L',)",0.0,0.361186683177948
"('L',)",0.0,0.308002233505249
"('L',)",0.0,0.08067946135997772
"('L',)",0.0,0.3997425436973572
"('L',)",30.0,28.718435287475586
"('L',)",50.0,49.05099105834961
"('L',)",0.0,0.17948977649211884
"('L',)",0.0,0.2333534210920334
"('L',)",40.0,35.37144470214844
"('1',)",0.0,0.4081990122795105
"('L',)",0.0,0.37189245223999023
"('L',)",0.0,0.028508111834526062
"('L',)",0.0,0.3199083209037781
"('L',)",0.0,0.36410605907440186
"('L',)",0.0,0.4183967113494873
"('L',)",0.0,0.06989602744579315
"('L',)",0.0,0.3789673447608948
"('L',)",0.0,0.5059649348258972
"('2',)",0.0,0.3222811818122864
"('L',)",0.0,0.3378158211708069
"('L',)",0.0,0.33566218614578247
"('L',)",0.0,-0.09658648073673248
"('L',)",0.0,0.5690473914146423
"('L',)",60.0,63.31220245361328
"('L',)",0.0,0.3683416247367859
"('L',)",0.0,0.4322294592857361
"('L',)",50.0,50.17667007446289
"('L',)",0.0,0.34099721908569336
"('L',)",50.0,48.626434326171875
"('L',)",0.0,0.43078821897506714
"('L',)",70.0,63.36376953125
"('2',)",0.0,0.42703932523727417
"('L',)",0.0,0.3849247694015503
"('L',)",30.0,35.80194091796875
"('L',)",20.0,20.12948226928711
"('L',)",20.0,23.87128448486328
"('L',)",0.0,0.1575370877981186
"('L',)",80.0,80.29130554199219
"('L',)",0.0,0.32798677682876587
"('L',)",0.0,0.1465080827474594
"('9',)",70.0,64.83157348632812
"('L',)",0.0,0.2783018946647644
"('L',)",40.0,41.32097625732422
"('L',)",0.0,0.46132969856262207
"('L',)",0.0,0.32900214195251465
"('L',)",0.0,0.14224164187908173
"('L',)",0.0,0.41773521900177
"('2',)",0.0,0.23533333837985992
"('L',)",40.0,26.877546310424805
"('L',)",0.0,0.32075560092926025
"('L',)",80.0,78.05281066894531
"('L',)",0.0,0.22700448334217072
"('L',)",0.0,1.044726014137268
"('L',)",0.0,0.38101762533187866
"('L',)",0.0,0.3096718192100525
"('L',)",10.0,10.973456382751465
"('L',)",0.0,0.38124072551727295
"('L',)",0.0,-0.052085354924201965
"('L',)",0.0,0.49516940116882324
"('L',)",40.0,45.965179443359375
"('L',)",50.0,48.175697326660156
"('L',)",0.0,0.23071293532848358
"('L',)",0.0,0.5723806023597717
"('L',)",0.0,0.31727999448776245
"('L',)",0.0,-0.3069385290145874
"('L',)",0.0,0.3691335916519165
"('L',)",0.0,0.500370442867279
"('L',)",0.0,0.43883180618286133
"('L',)",0.0,-0.5092012286186218
"('L',)",0.0,0.19763289391994476
"('L',)",0.0,0.32683199644088745
"('L',)",0.0,0.22631315886974335
"('L',)",0.0,0.45652079582214355
"('L',)",0.0,0.5080589652061462
"('L',)",20.0,18.610754013061523
"('L',)",20.0,11.531791687011719
"('5',)",0.0,0.030400559306144714
"('L',)",0.0,0.262722909450531
"('L',)",50.0,50.710968017578125
"('L',)",0.0,0.23725102841854095
"('L',)",0.0,0.49757444858551025
"('1',)",0.0,0.08549945056438446
"('L',)",0.0,0.20217375457286835
"('L',)",0.0,0.23674659430980682
"('L',)",0.0,0.4460347890853882
"('L',)",0.0,-0.04433460533618927
"('L',)",0.0,0.2654638886451721
"('1',)",0.0,0.5306192636489868
"('L',)",30.0,26.275043487548828
"('L',)",0.0,-0.05501396954059601
"('L',)",0.0,0.4043903350830078
"('L',)",0.0,0.03558073937892914
"('L',)",0.0,0.4635823965072632
"('1',)",0.0,0.29809921979904175
"('L',)",0.0,-0.1443493515253067
"('L',)",0.0,0.1714937537908554
"('L',)",0.0,-0.14946170151233673
"('L',)",0.0,0.04249052703380585
"('L',)",0.0,0.44025564193725586
"('L',)",20.0,20.54102325439453
"('L',)",0.0,0.4382919669151306
"('L',)",0.0,0.4208891987800598
"('L',)",0.0,0.12471930682659149
"('L',)",0.0,0.3387387990951538
"('L',)",20.0,23.776174545288086
"('L',)",0.0,0.3800731897354126
"('L',)",60.0,64.46927642822266
"('L',)",0.0,0.3811033368110657
"('L',)",0.0,0.11875741183757782
"('L',)",0.0,0.41327351331710815
"('L',)",0.0,-0.04505474865436554
"('L',)",0.0,0.28259629011154175
"('L',)",0.0,0.0051640719175338745
"('L',)",0.0,0.2084764689207077
"('L',)",0.0,0.13315896689891815
"('L',)",0.0,0.5257000923156738
"('L',)",0.0,0.45701324939727783
"('L',)",0.0,0.1912771314382553
"('L',)",0.0,0.5231480598449707
"('L',)",0.0,0.30074918270111084
"('L',)",40.0,34.14870834350586
"('2',)",0.0,0.42963021993637085
"('L',)",0.0,0.35866475105285645
"('L',)",0.0,0.5540208220481873
"('L',)",0.0,0.5670267939567566
"('L',)",0.0,0.5226289629936218
"('L',)",0.0,-0.3795744776725769
"('L',)",0.0,-0.22397370636463165
"('L',)",0.0,-0.3148499131202698
"('L',)",0.0,0.3388674259185791
"('L',)",0.0,0.23985843360424042
"('L',)",0.0,0.18203644454479218
"('L',)",0.0,0.4747461676597595
"('L',)",0.0,0.24857328832149506
"('L',)",80.0,77.77643585205078
"('L',)",0.0,0.40529847145080566
"('L',)",0.0,0.5077994465827942
"('L',)",0.0,0.42789942026138306
"('L',)",0.0,0.30404651165008545
"('L',)",80.0,80.85944366455078
"('9',)",0.0,0.33130836486816406
"('1',)",80.0,72.739013671875
"('L',)",40.0,34.40278625488281
"('L',)",0.0,0.10531465709209442
"('L',)",0.0,0.30813997983932495
"('2',)",0.0,0.45414799451828003
"('L',)",90.0,82.60997772216797
"('L',)",0.0,1.574694037437439
"('L',)",0.0,0.3899456858634949
"('2',)",30.0,27.844833374023438
"('L',)",0.0,0.4204370975494385
"('L',)",60.0,56.86088943481445
"('L',)",0.0,0.3544514775276184
"('L',)",0.0,-0.11504645645618439
"('L',)",10.0,10.338055610656738
"('L',)",0.0,0.2590101361274719
"('2',)",0.0,0.4960877299308777
"('L',)",80.0,66.8250961303711
"('L',)",0.0,0.374764621257782
"('L',)",0.0,-0.03403361141681671
"('L',)",50.0,44.578731536865234
"('L',)",0.0,0.23945240676403046
"('L',)",20.0,18.882972717285156
"('L',)",0.0,-0.29442960023880005
"('L',)",0.0,0.40100693702697754
"('L',)",0.0,0.54923015832901
"('L',)",0.0,0.2128031700849533
"('2',)",10.0,10.282817840576172
"('L',)",0.0,0.2814329266548157
"('L',)",0.0,0.19973163306713104
"('L',)",90.0,79.61649322509766
"('L',)",0.0,0.4470999836921692
"('L',)",40.0,30.566646575927734
"('L',)",0.0,0.2852305769920349
"('L',)",0.0,0.37365126609802246
"('L',)",0.0,0.27294665575027466
"('L',)",0.0,0.2811200022697449
"('L',)",10.0,13.956186294555664
"('L',)",0.0,0.6047731637954712
"('L',)",0.0,0.15927277505397797
"('L',)",0.0,0.17323856055736542
"('L',)",0.0,0.2575725317001343
"('L',)",0.0,0.287700355052948
"('L',)",0.0,0.49916619062423706
"('L',)",0.0,0.4822462797164917
"('L',)",0.0,0.35069745779037476
"('L',)",0.0,0.379067599773407
"('L',)",0.0,0.21873806416988373
"('L',)",0.0,-0.23081810772418976
"('L',)",0.0,0.3885765075683594
"('1',)",0.0,0.24348919093608856
"('2',)",0.0,0.44851958751678467
"('L',)",0.0,0.42020195722579956
"('L',)",0.0,0.6781225204467773
"('L',)",0.0,0.4581027030944824
"('L',)",0.0,0.4793041944503784
"('L',)",10.0,12.422884941101074
"('L',)",0.0,0.5364658236503601
"('L',)",0.0,0.2859100103378296
"('L',)",30.0,27.201068878173828
"('L',)",10.0,10.944818496704102
"('L',)",10.0,16.873125076293945
"('L',)",0.0,0.3860710859298706
"('L',)",0.0,0.4155855178833008
"('L',)",0.0,0.5186965465545654
"('L',)",0.0,0.26733648777008057
"('L',)",0.0,0.4642004370689392
"('L',)",0.0,-0.1621759682893753
"('L',)",0.0,0.2661135792732239
"('L',)",0.0,0.5442392230033875
"('L',)",30.0,32.195648193359375
"('L',)",0.0,-0.03396196663379669
"('L',)",0.0,0.23901216685771942
"('L',)",0.0,0.21536533534526825
"('L',)",40.0,38.87221145629883
"('L',)",0.0,0.4732031226158142
"('L',)",0.0,0.4290961027145386
"('L',)",0.0,0.5248790979385376
"('L',)",20.0,25.556535720825195
"('L',)",80.0,74.35913848876953
"('L',)",0.0,0.34696805477142334
"('7',)",0.0,0.1590205281972885
"('L',)",30.0,33.10160446166992
"('L',)",0.0,0.4458466172218323
"('L',)",10.0,12.956765174865723
"('L',)",0.0,0.3857133388519287
"('L',)",0.0,0.22165165841579437
"('L',)",0.0,0.07228641211986542
"('L',)",0.0,0.16433976590633392
"('L',)",0.0,0.39806753396987915
"('L',)",40.0,43.118709564208984
"('L',)",0.0,0.5456127524375916
"('L',)",0.0,0.3917973041534424
"('L',)",20.0,18.65478515625
"('L',)",0.0,0.250183641910553
"('L',)",0.0,0.2551819086074829
"('L',)",0.0,0.44972777366638184
"('L',)",0.0,0.17590729892253876
"('L',)",80.0,82.18900299072266
"('L',)",0.0,0.30361807346343994
"('L',)",0.0,0.0006005018949508667
"('L',)",0.0,0.44773274660110474
"('L',)",0.0,0.45732975006103516
"('L',)",0.0,0.2464877814054489
"('L',)",0.0,0.4405568838119507
"('L',)",0.0,0.8418999314308167
"('L',)",20.0,14.139320373535156
"('L',)",0.0,0.4531405568122864
"('L',)",0.0,0.2816218435764313
"('6',)",0.0,0.24616344273090363
"('L',)",0.0,0.39104366302490234
"('L',)",0.0,0.2942622900009155
"('L',)",0.0,0.4212416410446167
"('L',)",70.0,57.27290344238281
"('L',)",0.0,0.3806629180908203
"('L',)",10.0,11.919523239135742
"('L',)",10.0,13.174448013305664
"('L',)",0.0,0.296950101852417
"('L',)",0.0,1.0554437637329102
"('L',)",0.0,-0.06893022358417511
"('L',)",0.0,0.2574229836463928
"('L',)",0.0,0.4996899366378784
"('L',)",0.0,0.16602502763271332
"('L',)",0.0,-0.09358491003513336
"('L',)",0.0,0.010960504412651062
"('L',)",0.0,0.45069175958633423
"('L',)",0.0,0.4508259892463684
"('1',)",0.0,0.12907002866268158
"('L',)",0.0,0.35711437463760376
"('L',)",0.0,0.20867665112018585
"('L',)",0.0,0.5097548365592957
"('L',)",0.0,0.44800639152526855
"('L',)",0.0,-0.01354987919330597
"('L',)",30.0,35.8183479309082
"('L',)",60.0,66.68750762939453
"('1',)",0.0,0.4752342700958252
"('L',)",0.0,0.12129883468151093
"('L',)",0.0,0.3981776833534241
"('L',)",0.0,0.117845818400383
"('L',)",0.0,0.4180673360824585
"('L',)",0.0,0.06850068271160126
"('2',)",0.0,0.4145377278327942
"('L',)",0.0,0.3771481513977051
"('L',)",0.0,0.27901238203048706
"('L',)",0.0,0.2415759414434433
"('L',)",0.0,0.3566383719444275
"('L',)",0.0,0.30716946721076965
"('L',)",0.0,0.2926828861236572
"('1',)",60.0,59.90257263183594
"('L',)",30.0,33.71542739868164
"('L',)",0.0,0.3026846647262573
"('L',)",0.0,0.6329457759857178
"('L',)",0.0,0.4581875801086426
"('L',)",20.0,23.798839569091797
"('3',)",0.0,0.18051426112651825
"('L',)",0.0,0.5267118215560913
"('L',)",0.0,0.45351749658584595
"('L',)",0.0,0.004685625433921814
"('L',)",0.0,0.3901335597038269
"('L',)",50.0,44.70094680786133
"('L',)",0.0,0.4455505609512329
"('L',)",0.0,0.34849125146865845
"('L',)",0.0,0.2782898545265198
"('9',)",0.0,0.2357887178659439
"('L',)",90.0,89.03207397460938
"('L',)",40.0,45.87922286987305
"('L',)",0.0,0.480258047580719
"('L',)",0.0,0.18387310206890106
"('L',)",0.0,0.404227077960968
"('L',)",0.0,0.3681079149246216
"('L',)",0.0,0.2609758973121643
"('L',)",0.0,0.20715980231761932
"('1',)",70.0,74.35977935791016
"('L',)",0.0,0.21750931441783905
"('L',)",0.0,0.19170497357845306
"('L',)",0.0,0.47602325677871704
"('L',)",0.0,0.2911917567253113
"('L',)",0.0,0.5246259570121765
"('L',)",0.0,0.3522346615791321
"('L',)",0.0,0.2214175909757614
"('L',)",0.0,0.4279305934906006
"('2',)",0.0,0.34236156940460205
"('L',)",0.0,0.21602432429790497
"('L',)",0.0,0.4640864133834839
"('L',)",10.0,11.13818645477295
"('L',)",0.0,0.42394882440567017
"('L',)",0.0,0.3404581546783447
"('L',)",0.0,0.31865543127059937
"('L',)",0.0,0.32899659872055054
"('L',)",0.0,0.4071595072746277
"('L',)",0.0,0.44171077013015747
"('L',)",0.0,0.2187194675207138
"('L',)",0.0,0.28006231784820557
"('L',)",0.0,0.20165909826755524
"('L',)",0.0,0.17716936767101288
"('L',)",40.0,35.402618408203125
"('L',)",0.0,0.2893070578575134
"('L',)",60.0,65.81796264648438
"('1',)",0.0,0.3997949957847595
"('L',)",0.0,0.2802202105522156
"('L',)",0.0,0.3832590579986572
"('L',)",0.0,0.15701155364513397
"('L',)",0.0,0.5020166635513306
"('L',)",0.0,0.26688408851623535
"('L',)",0.0,0.3267473578453064
"('L',)",0.0,-0.18271030485630035
"('L',)",10.0,9.564884185791016
"('L',)",20.0,20.681581497192383
"('L',)",0.0,0.35119205713272095
"('L',)",0.0,0.24685819447040558
"('L',)",0.0,0.46063852310180664
"('L',)",0.0,-0.02237705886363983
"('L',)",0.0,0.1062270849943161
"('L',)",40.0,42.20783233642578
"('L',)",0.0,0.36487966775894165
"('L',)",0.0,0.4375625252723694
"('L',)",0.0,0.42361223697662354
"('L',)",0.0,0.3667355179786682
"('L',)",0.0,0.29897457361221313
"('L',)",0.0,0.2671172022819519
"('L',)",0.0,-0.13529284298419952
"('L',)",0.0,0.4975917935371399
"('L',)",10.0,11.907944679260254
"('L',)",0.0,0.009012386202812195
"('7',)",0.0,0.42928385734558105
"('2',)",0.0,0.47471797466278076
"('L',)",0.0,0.1947300285100937
"('L',)",0.0,0.40511810779571533
"('L',)",0.0,0.2553473711013794
"('2',)",0.0,0.3264663815498352
"('L',)",0.0,0.3138881325721741
"('L',)",80.0,74.19033813476562
"('L',)",0.0,0.27299201488494873
"('L',)",0.0,0.32595109939575195
"('L',)",20.0,20.525842666625977
"('L',)",40.0,37.543182373046875
"('L',)",60.0,57.219398498535156
"('L',)",0.0,-0.10560442507266998
"('L',)",0.0,0.33769965171813965
"('L',)",10.0,13.948273658752441
"('L',)",10.0,12.616978645324707
"('L',)",0.0,0.2458401769399643
"('L',)",0.0,0.41682177782058716
"('L',)",0.0,0.63055819272995
"('1',)",0.0,0.25564777851104736
"('L',)",0.0,0.4724053144454956
"('L',)",0.0,0.43698298931121826
"('L',)",0.0,0.35878825187683105
"('L',)",0.0,0.3921959400177002
"('L',)",0.0,0.4267088770866394
"('L',)",0.0,0.2949104309082031
"('L',)",0.0,0.6704809665679932
"('L',)",30.0,20.8709774017334
"('L',)",0.0,0.3821258842945099
"('L',)",0.0,0.3336699604988098
"('L',)",0.0,0.3205938935279846
"('L',)",30.0,38.44370651245117
"('L',)",0.0,-0.11080999672412872
"('L',)",0.0,0.20551364123821259
"('L',)",0.0,0.5597264170646667
"('L',)",0.0,0.3946129083633423
"('L',)",0.0,0.3004424571990967
"('L',)",0.0,0.09344135224819183
"('L',)",0.0,0.44504183530807495
"('L',)",0.0,0.3438635468482971
"('L',)",0.0,-0.10681022703647614
"('L',)",0.0,0.0874781459569931
"('L',)",20.0,26.30161476135254
"('L',)",0.0,0.3942888379096985
"('L',)",0.0,0.472065269947052
"('L',)",0.0,0.31108564138412476
"('L',)",0.0,0.355634868144989
"('L',)",0.0,0.2689463496208191
"('L',)",0.0,0.4617460370063782
"('L',)",0.0,0.05090503394603729
"('L',)",0.0,0.26020997762680054
"('L',)",0.0,0.1703125685453415
"('L',)",0.0,0.6825721859931946
"('L',)",0.0,0.10187987983226776
"('L',)",0.0,0.3339674472808838
"('L',)",0.0,0.38195425271987915
"('L',)",0.0,0.32261019945144653
"('L',)",0.0,0.30227500200271606
"('L',)",0.0,0.5060681700706482
"('L',)",0.0,0.3720787763595581
"('6',)",0.0,0.37796318531036377
"('L',)",0.0,0.44044965505599976
"('L',)",0.0,0.4370293617248535
"('L',)",0.0,0.5743007659912109
"('L',)",0.0,0.5242223143577576
"('L',)",0.0,0.04527084529399872
"('1',)",0.0,0.4649989604949951
"('L',)",0.0,0.2778850793838501
"('L',)",0.0,0.28514939546585083
"('L',)",0.0,0.6252754330635071
"('L',)",0.0,0.659633457660675
"('L',)",0.0,0.3692407011985779
"('L',)",0.0,0.26775944232940674
"('L',)",0.0,0.34098267555236816
"('L',)",0.0,0.5962284803390503
"('L',)",0.0,0.2557598352432251
"('L',)",0.0,0.1822597235441208
"('L',)",0.0,0.39676666259765625
"('L',)",0.0,0.17279063165187836
"('L',)",0.0,0.36560583114624023
"('L',)",0.0,0.26767271757125854
"('L',)",0.0,0.3561672568321228
"('L',)",50.0,41.90843200683594
"('L',)",30.0,32.802825927734375
"('L',)",0.0,0.412092924118042
"('L',)",0.0,0.29032063484191895
"('L',)",0.0,0.07135216891765594
"('L',)",0.0,0.3835909962654114
"('L',)",30.0,29.192914962768555
"('L',)",10.0,12.894485473632812
"('L',)",0.0,0.190103217959404
"('L',)",0.0,0.27331626415252686
"('L',)",0.0,0.2971133589744568
"('L',)",0.0,0.5073102116584778
"('L',)",0.0,0.33765387535095215
"('1',)",0.0,0.6841055750846863
"('L',)",0.0,0.30844974517822266
"('L',)",10.0,13.19888973236084
"('L',)",0.0,0.07329492270946503
"('L',)",0.0,0.22823302447795868
"('L',)",0.0,0.488039493560791
"('L',)",0.0,0.423430860042572
"('L',)",0.0,0.06024877727031708
"('L',)",0.0,0.1756211370229721
"('9',)",0.0,-0.1331016570329666
"('L',)",0.0,0.44209808111190796
"('L',)",0.0,0.23223994672298431
"('L',)",0.0,0.3297867774963379
"('2',)",0.0,0.2040473073720932
"('L',)",10.0,11.83503246307373
"('L',)",0.0,0.4698675870895386
"('L',)",0.0,0.46208035945892334
"('L',)",0.0,0.2251698225736618
"('L',)",0.0,0.5573421120643616
"('L',)",10.0,12.433605194091797
"('L',)",0.0,0.40393179655075073
"('L',)",0.0,0.3842334747314453
"('L',)",0.0,0.36760902404785156
"('L',)",0.0,0.14221911132335663
"('L',)",0.0,0.30893653631210327
"('L',)",60.0,59.98943328857422
"('L',)",60.0,57.642024993896484
"('L',)",0.0,0.3883233070373535
"('L',)",0.0,0.47069859504699707
"('L',)",0.0,0.17085270583629608
"('2',)",0.0,0.3409075140953064
"('L',)",0.0,0.2406865805387497
"('2',)",0.0,0.3661445379257202
"('L',)",0.0,0.4921266436576843
"('L',)",30.0,32.6917839050293
"('L',)",0.0,0.43542540073394775
"('2',)",0.0,0.10703824460506439
"('1',)",20.0,21.770721435546875
"('L',)",0.0,0.2571098208427429
"('L',)",0.0,0.4819587469100952
"('L',)",50.0,50.54603958129883
"('L',)",0.0,0.4111800193786621
"('L',)",0.0,0.37782713770866394
"('2',)",0.0,0.38470911979675293
"('L',)",0.0,0.4222513437271118
"('L',)",0.0,0.48449456691741943
"('L',)",0.0,0.5030940175056458
"('L',)",0.0,0.45041418075561523
"('L',)",0.0,-0.23034603893756866
"('L',)",0.0,0.3757164478302002
"('L',)",30.0,32.40271759033203
"('L',)",0.0,0.32976603507995605
"('L',)",0.0,0.3049352169036865
"('L',)",40.0,33.72132873535156
"('L',)",0.0,0.33077114820480347
"('L',)",0.0,0.3247462511062622
"('2',)",50.0,54.797367095947266
"('L',)",90.0,79.90483856201172
"('L',)",20.0,18.7069091796875
"('L',)",0.0,0.274223268032074
"('L',)",0.0,0.8503975868225098
"('L',)",0.0,0.26520341634750366
"('L',)",0.0,0.42069780826568604
"('2',)",0.0,0.09263567626476288
"('L',)",0.0,0.07989637553691864
"('L',)",0.0,0.4794020652770996
"('L',)",0.0,0.5057654976844788
"('2',)",0.0,0.23366199433803558
"('L',)",0.0,0.012586399912834167
"('L',)",0.0,0.16552071273326874
"('L',)",10.0,12.117257118225098
"('L',)",0.0,0.3763630986213684
"('L',)",0.0,0.20181982219219208
"('L',)",0.0,0.25025278329849243
"('L',)",0.0,-0.13542117178440094
"('L',)",0.0,0.244976207613945
"('L',)",0.0,0.5895593762397766
"('L',)",0.0,0.36745983362197876
"('L',)",0.0,0.48763763904571533
"('L',)",0.0,0.404483437538147
"('L',)",0.0,0.1709642857313156
"('L',)",70.0,74.46783447265625
"('L',)",0.0,0.31139814853668213
"('L',)",0.0,0.4334912896156311
"('L',)",0.0,0.44104301929473877
"('L',)",60.0,45.692440032958984
"('L',)",0.0,0.26206445693969727
"('L',)",10.0,10.432645797729492
"('L',)",0.0,0.0701858252286911
"('L',)",0.0,0.3660925030708313
"('L',)",70.0,60.844757080078125
"('L',)",0.0,0.23287348449230194
"('1',)",40.0,41.640472412109375
"('L',)",0.0,0.2248108834028244
"('L',)",60.0,59.27703857421875
"('2',)",30.0,28.076839447021484
"('L',)",20.0,14.550573348999023
"('L',)",0.0,0.17333321273326874
"('L',)",0.0,0.4374268651008606
"('L',)",20.0,20.760461807250977
"('L',)",0.0,0.38295459747314453
"('L',)",0.0,0.7457246780395508
"('L',)",0.0,0.182112917304039
"('L',)",0.0,0.28804314136505127
"('L',)",0.0,0.20903228223323822
"('L',)",0.0,0.2499866932630539
"('L',)",0.0,0.27330535650253296
"('L',)",0.0,0.38193076848983765
"('L',)",0.0,0.11160843074321747
"('9',)",0.0,0.3539903163909912
"('L',)",0.0,0.16049306094646454
"('L',)",0.0,0.3748304843902588
"('L',)",0.0,0.3074656128883362
"('L',)",80.0,74.92376708984375
"('L',)",0.0,0.33280056715011597
"('L',)",0.0,0.39838844537734985
"('L',)",40.0,39.50175094604492
"('L',)",0.0,0.17060963809490204
"('L',)",0.0,0.35362887382507324
"('L',)",0.0,0.27829068899154663
"('L',)",20.0,13.749074935913086
"('L',)",0.0,0.27202486991882324
"('L',)",0.0,0.23930753767490387
"('L',)",0.0,0.3850223124027252
"('L',)",80.0,79.0470962524414
"('L',)",0.0,0.2672046422958374
"('L',)",0.0,0.6054713129997253
"('L',)",0.0,0.16444550454616547
"('L',)",0.0,0.495871365070343
"('L',)",0.0,0.25804603099823
"('L',)",0.0,0.24617837369441986
"('L',)",50.0,55.06169128417969
"('L',)",0.0,0.2803398370742798
"('L',)",0.0,0.038350507616996765
"('L',)",0.0,0.3747794032096863
"('L',)",0.0,-0.09062130749225616
"('L',)",0.0,0.3175818920135498
"('1',)",0.0,0.2190147489309311
"('L',)",0.0,0.529274582862854
"('L',)",0.0,0.4478607177734375
"('L',)",0.0,0.11784540116786957
"('L',)",0.0,0.4078180193901062
"('L',)",0.0,0.2180687040090561
"('L',)",30.0,27.757755279541016
"('3',)",50.0,50.22645950317383
"('L',)",0.0,-0.043375447392463684
"('L',)",0.0,0.4159882664680481
"('L',)",0.0,0.11529426276683807
"('L',)",0.0,0.19438175857067108
"('L',)",10.0,11.232177734375
"('L',)",0.0,0.37885624170303345
"('L',)",0.0,0.40434378385543823
"('L',)",80.0,74.14128112792969
"('L',)",0.0,0.3477722406387329
"('L',)",0.0,0.5803704857826233
"('L',)",0.0,-0.015762165188789368
"('L',)",0.0,0.21734635531902313
"('L',)",70.0,69.82624816894531
"('L',)",0.0,0.41852158308029175
"('L',)",0.0,0.4754762649536133
"('L',)",0.0,0.24736042320728302
"('L',)",40.0,37.978878021240234
"('L',)",0.0,-0.03538458049297333
"('L',)",0.0,0.2695591449737549
"('L',)",0.0,0.40771669149398804
"('L',)",0.0,-0.0030277520418167114
"('L',)",0.0,0.6905471086502075
"('L',)",0.0,0.4327705502510071
"('L',)",10.0,16.5500431060791
"('L',)",0.0,0.24526424705982208
"('2',)",0.0,0.29150670766830444
"('L',)",0.0,0.6175854802131653
"('L',)",0.0,0.2636115550994873
"('L',)",0.0,0.3729588985443115
"('L',)",0.0,0.2742244601249695
"('L',)",0.0,0.12878011167049408
"('L',)",0.0,0.23377849161624908
"('L',)",0.0,0.3893923759460449
"('L',)",0.0,0.22497819364070892
"('L',)",0.0,0.5305206179618835
"('L',)",0.0,0.322892963886261
"('L',)",0.0,0.1368190497159958
"('L',)",0.0,-0.06227631866931915
"('L',)",0.0,0.4418138861656189
"('L',)",0.0,0.43355321884155273
"('L',)",0.0,0.4155106544494629
"('L',)",0.0,0.488672137260437
"('L',)",40.0,45.13227081298828
"('L',)",0.0,0.40452247858047485
"('L',)",0.0,0.2941594123840332
"('L',)",0.0,0.29773151874542236
"('L',)",0.0,0.36293232440948486
"('L',)",90.0,84.15880584716797
"('L',)",0.0,0.31739556789398193
"('L',)",0.0,0.058805957436561584
"('L',)",0.0,0.28910577297210693
"('L',)",0.0,0.3935152292251587
"('L',)",0.0,0.297365665435791
"('L',)",0.0,0.29751068353652954
"('L',)",0.0,-0.07205970585346222
"('L',)",0.0,0.265139102935791
"('L',)",0.0,0.4443449378013611
"('L',)",0.0,0.5512474179267883
"('L',)",0.0,0.3189237713813782
"('L',)",70.0,65.93727111816406
"('L',)",0.0,0.4580530524253845
"('L',)",0.0,0.3778699040412903
"('L',)",0.0,-0.10504384338855743
"('L',)",0.0,0.03593461215496063
"('L',)",0.0,0.4519023299217224
"('L',)",0.0,0.3453056812286377
"('L',)",0.0,0.18293718993663788
"('L',)",0.0,0.5608997941017151
"('L',)",0.0,0.37517571449279785
"('L',)",0.0,0.41327762603759766
"('L',)",0.0,0.3141798973083496
"('L',)",0.0,0.3542786240577698
"('2',)",30.0,32.03253936767578
"('2',)",30.0,31.66816520690918
"('L',)",0.0,0.7701820731163025
"('L',)",0.0,0.49930018186569214
"('L',)",20.0,19.497854232788086
"('L',)",50.0,45.55601501464844
"('L',)",0.0,0.4545445442199707
"('L',)",30.0,32.26238250732422
"('L',)",0.0,0.3901054263114929
"('L',)",0.0,0.24037770926952362
"('1',)",0.0,0.16978995501995087
"('1',)",0.0,0.23195664584636688
"('L',)",0.0,0.3944157361984253
"('L',)",0.0,0.29503703117370605
"('L',)",0.0,0.4649133086204529
"('2',)",0.0,0.2778507471084595
"('L',)",0.0,0.3052492141723633
"('L',)",0.0,0.30935144424438477
"('L',)",0.0,0.4373316764831543
"('L',)",0.0,0.025374338030815125
"('L',)",0.0,0.4641765356063843
"('L',)",0.0,0.34557682275772095
"('L',)",0.0,1.0073233842849731
"('L',)",0.0,0.3631743788719177
"('L',)",0.0,0.25632256269454956
"('L',)",30.0,30.58943748474121
"('L',)",10.0,11.547839164733887
"('L',)",0.0,0.3551703095436096
"('L',)",0.0,-0.1154136210680008
"('L',)",0.0,0.3122788071632385
"('L',)",0.0,0.34233951568603516
"('L',)",0.0,0.24175457656383514
"('L',)",0.0,0.48678499460220337
"('L',)",0.0,0.31366127729415894
"('L',)",0.0,0.33319932222366333
"('L',)",0.0,-0.11386354267597198
"('L',)",0.0,0.45214056968688965
"('L',)",0.0,0.46045398712158203
"('L',)",0.0,0.13487105071544647
"('L',)",0.0,0.43747878074645996
"('L',)",0.0,0.4148116707801819
