pos_label,pos_pred
0.0,0.0
0.0,0.0
20.18619155883789,17.427776336669922
0.0,0.0
0.02794049680233,0.0
0.1032810360193252,0.0
0.0406074970960617,0.0
23.31856918334961,18.6938533782959
0.1219764500856399,0.0
0.3206125497817993,0.0
0.0,0.0
0.0,0.0
0.0468293875455856,0.0
0.0,0.0
27.53716087341309,26.58088111877441
0.0,0.0
0.1109695881605148,0.0
0.0,0.0
1.5966869592666626,0.0
0.0,0.0
0.3009177446365356,0.0
0.0,0.0
0.0,0.0
0.1433379203081131,0.0
0.0,0.0
56.19868087768555,70.50341033935547
0.0660634487867355,0.0
0.0,0.0
0.0721891745924949,0.0
0.0,0.0
0.0441851466894149,0.0
0.151655688881874,0.0
0.0,0.0
0.1645980030298233,0.0
36.97049331665039,24.052099227905277
0.0551576018333435,0.0
0.4358698725700378,0.0
0.0,0.0
0.1103418916463851,0.0
0.0140878111124038,0.0
33.2993278503418,24.97261428833008
0.1520014107227325,0.0
0.1844406574964523,0.0
0.0,0.0
21.613182067871094,18.247589111328125
0.1330107301473617,0.0
0.0,0.0
0.0370274633169174,0.0
0.0312327593564987,0.0
34.143402099609375,23.179670333862305
0.0,0.8942118883132935
0.0540581792593002,0.0
76.43926239013672,94.79533386230467
0.0,0.0
0.0234760046005249,0.0
0.9696456789970398,0.0
50.7210807800293,69.64288330078125
0.1371151208877563,0.0
31.15357780456543,28.818115234375
0.7532768845558167,0.0
0.0,0.0
0.2598254680633545,0.0
0.0,0.0
0.0964795649051666,0.0
24.719541549682617,21.836885452270508
0.0,0.0
0.0383790880441665,0.0
0.0,0.0
0.2782297134399414,0.0
0.5048183798789978,0.0
0.0,0.0
0.0,0.0
0.2482641786336898,0.0
0.0390406101942062,0.0
0.0185901224613189,0.0
0.0,0.0
0.0137252956628799,0.0
0.0520300865173339,0.0
0.0,0.0
0.0,0.0
0.1467502564191818,0.0
0.0,0.0
0.0296310037374496,0.0
0.2637147903442383,0.0
0.0,0.0
0.0016381442546844,0.0
0.0,0.0
0.3208923935890198,0.0
0.0,0.0
0.0715842694044113,0.0
0.0,0.0
0.0,0.0
0.1015733629465103,0.0
0.1071767881512641,0.0
0.0,0.0
36.404930114746094,40.84204864501953
34.25838851928711,31.68445205688477
0.0,0.0
0.119400143623352,0.0
52.83243942260742,25.29976463317871
0.0851174667477607,0.0
83.78468322753906,83.42415618896484
0.8291642069816589,0.0
0.4973533749580383,0.0
0.4891288876533508,0.0
0.0,0.0
0.0,0.0
0.0904536098241806,0.0
0.0168936550617218,0.0
0.074529156088829,0.0
0.1361005902290344,0.0
0.0,0.0
0.2688154280185699,0.0
0.2740568518638611,0.0
50.34561538696289,50.46373748779297
0.0,0.0
0.0,0.0
0.0,0.0
0.0,0.0
0.0,0.0
0.0,0.0
42.18805694580078,42.03350067138672
0.0865129828453064,0.0
0.0151382237672805,0.0
0.0,0.0
0.3399764895439148,0.0
0.3361507058143616,0.0
0.0,0.0
0.0033113658428192,0.0
0.1761411279439926,0.0
0.0,0.0
0.0,0.0
0.0,0.0
0.0,0.0
0.0,0.0
0.1147528439760208,0.0
0.0,0.0
40.70486068725586,43.119476318359375
0.0707812905311584,0.0
0.1041528582572937,0.0
0.0,0.0
0.0,0.0
0.0268434882164001,0.0
0.1620908975601196,0.0
0.0355138182640075,0.0
43.4387321472168,44.68833923339844
0.0471741557121276,0.0
23.38691520690918,25.97260856628418
23.273082733154297,23.31415367126465
0.0,0.0
0.0,0.0
0.0,0.0
0.236399307847023,0.0
40.98583221435547,44.29545974731445
0.0,0.0
73.05606079101562,72.74932861328125
0.4018749594688415,0.0
49.37197494506836,66.52099609375
0.0,0.0
0.0,0.0
0.0,0.0
32.24460220336914,32.33149719238281
0.0745697095990181,0.0
0.1229348927736282,0.0
0.0,0.0
22.915550231933597,23.93584251403809
0.1968998908996582,0.0
0.0616670995950698,0.0
0.0,0.0
0.0651029124855995,0.0
0.0,0.0
0.0023365467786788,0.0
0.0,0.0
0.0,0.0
29.76754379272461,23.46208381652832
0.0,0.0
0.3096247315406799,0.0
0.0,0.0
0.0159455090761184,0.0
0.0350115150213241,0.0
0.2115982621908188,0.0
0.0,0.0
27.49534034729004,23.11417961120605
70.92922973632812,71.14075469970703
0.2721586227416992,0.0
0.4567608833312988,0.0
35.62958908081055,39.390174865722656
26.009986877441406,26.97875595092773
0.122430607676506,0.0
0.0,0.0
0.0764703452587127,0.0
0.0,0.0
0.0,0.0
0.0243126899003982,0.0
0.0103054791688919,0.0
0.0,0.0
0.0,0.0
0.2685299515724182,0.0
0.0,0.0
0.1016468480229377,0.0
0.0742713063955307,0.0
0.0,0.0
34.08515167236328,22.09330177307129
0.1167281121015548,0.0
0.5534936785697937,0.0
0.0968328714370727,0.0
0.3984199166297912,0.0
72.68917846679688,83.89347076416016
0.2401000410318374,0.0
53.71675491333008,67.29071807861328
0.0552407503128051,0.0
0.086096778512001,0.0
0.0,0.0
0.0,0.0
0.0544160604476928,0.0
0.0,0.0
0.0,0.0
0.0,0.0
0.0756794363260269,0.0
0.0506613701581954,0.0
0.0,0.0
43.013126373291016,41.12846755981445
0.2121239751577377,0.0
0.0877500623464584,0.0
0.0,0.0
29.36413955688477,32.5244255065918
0.0,0.0
0.2558668255805969,0.0
0.0,0.0
0.1942559331655502,0.0
0.0,0.0
0.2845773100852966,0.0
28.34617805480957,23.390798568725582
0.0,0.0
0.0,0.0
0.2491171360015869,0.0
26.9686222076416,25.116071701049805
0.1185099333524704,0.0
0.0,0.0
0.0,0.0
0.0432847291231155,0.0
0.080797329545021,0.0
0.3128934502601623,0.0
0.1693396419286728,0.0
0.0,0.0
0.0429530143737793,0.0
0.0769452303647995,0.0
43.26095962524414,42.58609008789063
0.0,0.0
0.0,0.0
39.29861068725586,33.0010871887207
0.3129963278770447,0.0
0.0,0.0
0.2429931014776229,0.0
20.207687377929688,17.278430938720703
26.504743576049805,22.149045944213867
39.51206207275391,39.086055755615234
45.1314582824707,46.734954833984375
0.0,0.0
0.1126348823308944,0.0
0.0,0.0
0.2095853239297866,0.0
0.1486816704273224,0.0
38.19559097290039,29.77469825744629
0.0,0.0
0.0,0.0
0.0,0.0
0.0,0.0
0.1859064847230911,0.0
27.908626556396484,25.557653427124023
0.0,0.0
0.3810330033302307,0.0
0.0,0.0
0.0,0.0
0.0,0.0
0.0,0.0
0.0,0.0
0.0,0.0
0.0,0.0
0.9223703742027284,0.0
0.0,0.0
50.02843475341797,51.09803771972656
0.0,0.0
42.54488754272461,55.53472900390625
0.0679449439048767,0.0
0.1826923936605453,0.0
0.1142602711915969,0.0
0.0,0.6739245057106018
0.2980298399925232,0.0
0.0161765962839126,0.0
43.617950439453125,42.525875091552734
0.2732756733894348,0.0
71.70063781738281,82.19823455810547
0.0320553481578826,0.0
0.0,0.0
0.0391336530447006,0.0
0.0,0.0
0.0,0.0
0.055270031094551,0.0
0.0,0.0
0.0,0.0
0.0363530069589614,0.0
0.1408038586378097,0.0
0.0,0.0
0.0,0.0
0.0,0.0
0.1078106015920639,0.0
0.0,0.0
0.0,0.0
0.250557541847229,0.0
0.0,0.0
0.0,0.0
0.2688134014606476,0.0
0.0,0.0
27.934925079345703,26.301490783691406
0.1197189539670944,0.0
0.0054420381784439,0.0
0.0,0.0
0.1517594009637832,0.0
0.0,0.0
0.0,0.0
27.116180419921875,21.675031661987305
0.0,0.0
0.0,0.0
0.0756351053714752,0.0
0.0742234140634536,0.0
0.115592285990715,0.0
50.26012420654297,45.2879753112793
0.2456960976123809,0.0
0.0,0.0
0.0,0.0
0.0,0.0
0.0,0.0
0.0207665413618087,0.0
0.0377901941537857,0.0
0.0991326123476028,0.0
39.53488540649414,21.082380294799805
0.2483403235673904,0.0
0.0,0.0
0.0,0.0
0.3623811602592468,0.0
0.0,0.0
0.0371721386909484,0.0
0.0324165821075439,0.0
0.0733722448348999,0.0
0.0,0.0
0.1193472295999527,0.0
0.0577398091554641,0.0
46.73626327514648,45.89229965209961
0.051974818110466,0.0
0.0,0.0
0.0,0.0
0.0988019853830337,0.0
0.3347070813179016,0.0
0.3281458616256714,0.0
0.0918605476617813,0.0
0.122496597468853,0.0
58.25239562988281,76.5999526977539
0.0,0.0
0.0,0.0
26.089393615722656,20.162471771240234
25.49912452697754,21.6748104095459
0.010773167014122,0.0
0.0345338732004165,0.0
0.0820875316858291,0.0
0.0563675761222839,0.0
24.596942901611328,16.819032669067383
61.355072021484375,78.59220123291016
0.0,0.0
0.0,0.0
0.0,0.0
53.747802734375,53.2602424621582
0.0207437276840209,0.0
26.761032104492188,27.646703720092773
47.50406646728516,45.47442626953125
0.0,0.0
65.31857299804688,77.12409973144531
0.0,0.0
0.0,0.0
0.4942957162857055,0.0
0.0239161700010299,0.0
0.0,0.0
0.0,0.0
0.0609489232301712,0.0
0.0,0.0
24.81347274780273,17.75376319885254
0.9153956174850464,0.0
0.1503682434558868,0.0
29.069900512695312,21.097213745117188
0.0273811668157577,0.0
0.0,0.0
0.1222448796033859,0.0
34.996604919433594,20.1907958984375
0.0,0.0
0.0,0.0
0.4222239255905151,0.0
0.0,0.0
0.7625133991241455,0.0
0.1890353411436081,0.0
75.01649475097656,84.81534576416016
0.0,0.0
55.8238525390625,49.74674987792969
0.0,0.0
0.0983057767152786,0.0
0.1317741721868515,0.0
0.0,0.0
0.0,0.0
0.0,0.0
0.0,0.0
0.0,0.0
74.31684875488281,88.20875549316406
0.0361266732215881,0.0
0.0,0.0
0.0645569115877151,0.0
0.0481473505496978,0.0
0.0,0.0
0.0,0.0
0.0,0.0
0.0582455992698669,0.0
0.0315918624401092,0.0
59.88081359863281,56.59931945800781
0.0774269849061966,0.0
33.3565559387207,29.19582176208496
31.10140419006348,24.22527885437012
0.0,0.0
39.676849365234375,40.72762298583984
0.0,0.0
0.06036938726902,0.0
0.0817539095878601,0.0
0.0,0.0
30.19003677368164,23.60318946838379
21.448213577270508,17.564359664916992
0.0,0.0
0.0,0.0
0.6176466941833496,0.0
0.0,0.0
0.0,0.0
0.0,0.0
0.1268743127584457,0.0
0.1419629752635955,0.0
24.58093643188477,21.28037452697754
22.0931453704834,3.8287413120269775
0.0,0.0
0.0,0.0
0.0,0.0
57.56466674804688,73.5080795288086
0.0191735327243804,0.0
0.0,0.0
0.0160186439752578,0.0
64.97429656982422,68.9941635131836
0.0,0.0
0.294420838356018,0.0
0.0,0.0
0.1000515669584274,0.0
0.0319533348083496,0.0
0.0398279577493667,0.0
0.0,0.0
46.180419921875,43.76548767089844
0.0964958518743515,0.0
0.1624386757612228,0.0
0.0,0.0
0.0,0.0
31.032968521118164,34.98404693603516
0.0,0.0
34.3699951171875,37.3827018737793
0.1794390678405761,0.0
0.0499582141637802,0.0
0.4368406534194946,0.0
0.10804383456707,0.0
0.141451820731163,0.0
0.0,0.0
35.04662322998047,38.440338134765625
17.77274513244629,18.024600982666016
0.0,0.0
0.0,0.0
0.0019339323043823,0.0
0.0058402419090271,0.0
0.0,0.0
0.3000017702579498,0.0
0.0701462775468826,0.0
0.0,0.0
0.0,0.0
0.5054147243499756,0.0
37.37211608886719,30.97525787353516
0.0908979922533035,0.0
0.0,0.0
0.0,0.0
0.0208861678838729,0.0
0.0,0.0
0.0,0.0
56.200645446777344,62.18687438964844
0.0,0.0
0.0,0.0
0.0,0.0
0.0,0.0
0.0,0.0
0.0643005520105362,0.0
0.3726935982704162,0.0
0.0623788386583328,0.0
0.0,0.0
0.2274936884641647,0.0
0.2731831669807434,0.0
0.0843217894434928,0.0
0.2781914472579956,0.0
0.0,0.0
0.1803404241800308,0.0
18.984783172607425,15.728231430053713
0.0,0.0
0.0,0.0
0.011803776025772,0.0
0.0,0.0
0.0,0.0
46.12929534912109,47.12236404418945
0.0,0.0
19.7987003326416,17.31200408935547
0.1946583539247512,0.0
0.1091474741697311,0.0
0.0,0.0
0.2265017628669738,0.0
0.1813016682863235,0.0
0.3541883826255798,0.0
0.0,0.0
0.0,0.0
42.01279067993164,44.525184631347656
0.0430404990911483,0.0
0.0,0.0
25.85499382019043,24.24271583557129
0.0,0.0
39.431941986083984,36.146121978759766
0.0268399715423584,0.0
0.0,0.0
0.5644713044166565,0.0
0.0,0.0
0.0574203878641128,0.0
0.0,0.0
0.0,0.0
32.19756317138672,23.42776107788086
0.1269536018371582,0.0
0.0,0.0
0.0,0.0
15.30712890625,16.234086990356445
0.0,0.0
0.266609251499176,0.0
0.0,0.0
43.76164245605469,70.2795181274414
24.4091911315918,21.824785232543945
0.0321051031351089,0.0
0.0,0.0
0.0,0.0
0.1506506353616714,0.0
0.0,0.0
0.1551773399114608,0.0
0.0,0.0
0.0071362704038619,0.0
0.0,0.0
0.1133684292435646,0.0
0.0,0.0
0.0,0.0
0.1298308223485946,0.0
0.2497942298650741,0.0
0.1263489872217178,0.0
0.0,0.0
0.0,0.0
0.0,0.0
31.379838943481445,31.08921813964844
0.0,0.0
0.0,0.0
0.1309869736433029,0.0
0.0,0.0
30.980892181396484,27.015737533569336
25.26506805419922,22.825244903564453
20.89499855041504,18.373836517333984
0.0,0.0
0.0,0.0
0.0,0.0
0.0,0.0
0.0,0.0
0.618904173374176,0.0
22.24774169921875,20.70970726013184
0.0,0.0
0.0,0.0
0.0815258622169494,0.0
0.0,0.0
0.0,0.0
81.10829162597656,86.34200286865234
0.0104274302721023,0.0
0.0,0.0
0.0791952162981033,0.0
41.924766540527344,35.3599853515625
36.70275115966797,37.461875915527344
0.0,0.0
14.828468322753906,16.265878677368164
0.0,0.0
0.0597403794527053,0.0
62.811767578125,67.95797729492188
0.1071118861436843,0.0
0.0,0.0
0.3669115900993347,0.0
20.84359359741211,19.52605628967285
0.1056336909532547,0.0
0.0,0.0
0.3833978772163391,0.0
46.82186508178711,41.85778045654297
0.0,0.0
0.2341028898954391,0.0
0.0377210527658462,0.0
0.0,0.0
0.0407374948263168,0.0
0.0,0.0
0.0,0.0
0.0,0.1134182140231132
0.1643875390291214,0.0
0.0895680785179138,0.0
0.0,0.0
0.0067185014486312,0.0
0.0986403971910476,0.0
0.0634755492210388,0.0
19.13274383544922,26.54690933227539
0.0,0.0
0.0,0.0
0.0,0.0
0.2977626919746399,0.0
40.4260139465332,39.92899703979492
0.3672157526016235,0.0
0.1001816987991333,0.0
0.0,0.0
77.36875915527344,89.78650665283203
0.1674716025590896,0.0
0.0,0.0
0.0,0.0
0.2975198030471802,0.0
0.0,0.0
0.0,0.0
51.29928970336914,43.25408554077149
0.0531816631555557,0.0
0.0,0.0
0.0046900659799575,0.0
0.0755079388618469,0.0
0.0,0.0
0.0,0.0
0.531286358833313,0.0
0.0,0.0
0.1684768348932266,0.0
0.0,0.0
0.0,0.0
0.0,0.0
0.1250985264778137,0.0
0.0,0.0
29.292381286621094,29.440942764282227
60.18022155761719,59.4339714050293
0.3514619469642639,0.0
0.0,0.0
0.0,0.0
34.216278076171875,28.71527099609375
0.0,0.0
0.0,0.0
0.2162832021713256,0.0
0.0,0.0
0.0,0.0
0.2153828889131546,0.0
0.0769434422254562,0.0
0.252734363079071,0.0
83.90144348144531,89.01048278808594
0.0,0.0
0.0,0.0
0.0,0.0
0.0,0.0
0.0,0.0
0.0,0.0
0.0,0.0
0.0,0.0
0.0725747495889663,0.0
0.0,0.0
0.3561505079269409,0.0
71.96586608886719,80.0983657836914
0.0,0.0
0.3473797142505646,0.0
0.2144721746444702,0.0
0.19023297727108,0.0
0.0827842652797699,0.0
0.0,0.0
0.0,0.0
0.3820794224739074,0.0
0.1429509371519088,0.0
0.5880202054977417,0.0
0.2962769865989685,0.0
0.0,0.0
0.0832318514585495,0.0
0.0416840612888336,0.0
30.96809196472168,23.92010498046875
0.0,0.0
0.100675031542778,0.0
42.74269104003906,44.72173690795898
0.1896796822547912,0.0
0.0917389988899231,0.0
0.1246003359556198,0.0
0.0,0.0
71.32683563232422,77.21707153320312
0.0982138738036155,0.0
0.1135836839675903,0.0
0.0,0.0
0.1131400316953659,0.0
0.0150333195924758,0.0
0.0,0.0
0.0,0.0
14.01784324645996,15.653603553771973
0.0,0.0
0.0,0.0
0.0134572833776474,0.0
0.0,0.0
0.0677578598260879,0.0
0.0,0.0
0.293633222579956,0.0
0.1321426928043365,0.0
39.90180206298828,71.4711685180664
0.1115227788686752,0.0
58.884559631347656,69.91626739501953
27.56175994873047,21.84764862060547
0.0,0.0
0.043748453259468,0.0
0.4004485011100769,0.0
39.890228271484375,26.537006378173828
23.86872100830078,24.739425659179688
0.0,0.0
0.0,0.0
0.0,0.0
0.0,0.0
0.0,0.0
0.0,0.0
54.51576614379883,38.684715270996094
0.0,0.0
24.105131149291992,20.92162132263184
0.1499615758657455,0.0
0.0134620070457458,0.0
0.0,0.0
0.0,0.0
0.1197835281491279,0.0
0.0356767028570175,0.0
0.0812082886695861,0.0
0.0,0.0
0.0,0.0
0.0,0.0
0.0,0.0
40.06376266479492,39.696067810058594
0.0194479525089263,0.0
0.0,0.0
24.64594268798828,17.73696517944336
34.17315673828125,26.328977584838867
0.0679945051670074,0.0
0.1283093094825744,0.0
0.3632280230522156,0.0
0.0208181142807006,0.0
0.0817326307296752,0.0
24.75248146057129,17.64170265197754
0.0,0.0
40.947021484375,44.78700637817383
0.1208634227514267,0.0
0.0,0.0
0.0,0.0
0.574610710144043,0.0
0.2347282618284225,0.0
23.143089294433597,22.220531463623047
0.0252026319503784,0.0
0.1261279135942459,0.0
0.0,0.0
37.51346206665039,34.172264099121094
43.05889892578125,37.42213439941406
0.0,0.0
0.1220187395811081,0.0
0.0,0.0
0.0,0.0
0.0866410508751869,0.0
36.224098205566406,25.839006423950195
0.0983463078737258,0.0
0.0,0.0
0.0,0.0
0.0,0.0
0.0829990953207016,0.0
0.0,0.0
27.987638473510746,27.60361862182617
0.0,0.0
0.0,0.0
34.37630081176758,33.051544189453125
0.0,0.0
0.0,0.0
0.0,0.0
0.1332886517047882,0.0
0.0895475298166275,0.0
0.246618241071701,0.0
0.2481681555509567,0.0
0.0429932326078414,0.0
0.0407521724700927,0.0
0.0,0.0
0.0,0.0
0.0,0.0
0.0,0.0
44.337989807128906,50.2435302734375
0.0,0.0
0.0,0.0
0.0,0.0
0.0,0.0
0.0,0.0
21.54486083984375,21.843976974487305
0.00386343896389,0.0
0.216070145368576,0.0
0.0,0.0
0.1893605440855026,0.0
29.592130661010746,32.150657653808594
0.0549437552690506,0.0
1.3256491422653198,0.0
0.0,0.0
0.0,0.0
0.0,0.0
0.0,0.0
0.0936997085809707,0.0
0.0,0.0
0.0,1.9717403650283811
22.20078659057617,18.37729835510254
0.0020952522754669,0.0
0.0439157038927078,0.0
0.0,0.0
0.0018130391836166,0.0
0.0399914383888244,0.0
0.079022392630577,0.0
0.0,0.0
0.0,0.0
0.1189713776111602,0.0
0.447137713432312,0.0
21.347637176513672,30.305160522460938
0.0,0.0
43.39259719848633,50.438568115234375
0.0,0.0
0.0,0.0
0.014042854309082,0.0
0.0,0.0
0.0,0.0
0.0,0.0
0.022174447774887,0.0
0.0,0.0
26.36739730834961,18.63641929626465
0.0675805956125259,0.0
0.2273704707622528,0.0
0.1105983182787895,0.0
19.62050437927246,17.331329345703125
0.1393970549106598,0.0
0.2107679098844528,0.0
0.0423954874277114,0.0
0.1008044481277465,0.0
0.1683362573385238,0.0
0.0,0.0
0.0,0.0
62.96901321411133,55.27339172363281
0.0,0.0
22.633304595947266,20.266454696655277
57.98443603515625,42.92205047607422
0.0,0.0
0.0368963778018951,0.0
0.0,0.0
0.0125858932733535,0.0
0.0956781953573226,0.0
0.0,0.0
0.2552226781845093,0.0
0.0,0.0
0.2058458179235458,0.0
0.0,0.0
0.1050858497619628,0.0
0.0,0.0
0.0,0.0
0.325907289981842,0.0
0.0,0.0
0.0,0.0
0.0829506069421768,0.0
0.0,0.0
0.0,0.0
31.289794921875,26.744977951049805
30.895225524902344,26.476417541503903
46.434844970703125,45.12845993041992
0.3740139603614807,0.0
50.527923583984375,53.827857971191406
0.0913595035672187,0.0
0.0,0.0
49.80814743041992,42.6320686340332
0.0322727560997009,0.0
0.0,0.0
0.0,0.0
0.0219562649726867,0.0
0.0,0.0
0.0,0.0
0.0,0.0
0.0,0.0
0.2237252444028854,0.0
0.0,0.0
0.0652084499597549,0.0
0.0240571200847625,0.0
0.0985223054885864,0.0
0.0,0.0
0.0508236140012741,0.0
0.0,0.0
0.1049845069646835,0.0
0.0,0.0
0.0,0.0
0.3549849390983581,0.0
0.0,0.0
0.0,0.0
0.1935424655675888,0.0
0.0286541134119033,0.0
0.0,0.0
0.0,0.0
0.0,0.0
0.0,0.0
0.0751399546861648,0.0
0.0,0.0
0.0,0.0
52.72779083251953,60.60581207275391
0.0778401345014572,0.0
0.0,0.0
0.0,0.0
0.0062101632356643,0.0
0.1590527892112732,0.0
0.0,0.0
0.1426484435796737,0.0
0.0,0.0
0.0276458412408828,0.0
0.0,0.0
3.4274113178253174,0.0
0.2041060179471969,0.0
0.0,0.0
0.1636134982109069,0.0
0.1969294548034668,0.0
0.0,0.0
0.0,0.0
0.0,0.0
0.0,0.0
40.38237380981445,41.48490905761719
0.1321019977331161,0.0
74.83699798583984,78.19046783447266
0.0865443050861358,0.0
0.0,0.0
0.0,0.0
0.1923960447311401,0.0
0.1309334337711334,0.0
0.0,0.0
0.0725545138120651,0.0
0.0,0.0
0.0,0.0
0.0,0.0
0.0976668745279312,0.0
0.0,0.0
27.008251190185547,25.36644744873047
0.0,0.0
35.419132232666016,32.467315673828125
0.1092277020215988,0.0
0.3988664746284485,0.0
0.0,0.0
0.0,0.0
0.1052735894918441,0.0
25.10375022888184,17.130895614624023
0.2124597877264022,0.0
0.3045833706855774,0.0
26.49955177307129,31.23504066467285
0.018573984503746,0.0
0.1559715569019317,0.0
0.0533568561077117,0.0
0.0,0.0
0.0,0.0
59.21394729614258,72.38128662109375
0.1127717494964599,0.0
0.0,0.0
0.0916867703199386,0.0
0.0,0.0
0.1498904675245285,0.0
0.0,0.0
0.0018773227930068,0.0
0.5862788558006287,0.0
0.0,0.0
0.1977050602436065,0.0
0.3081403970718384,0.0
0.14230577647686,0.0
0.3220274448394775,0.0
0.1812234669923782,0.0
34.17720031738281,30.715347290039062
0.0,0.0
45.00175476074219,36.99909973144531
0.0,0.0
0.1319030523300171,0.0
0.2469219416379928,0.0
0.0,0.0
0.0,0.0
0.0,0.0
0.0290056616067886,0.0
0.0147570073604583,0.0
0.0,0.0
0.0,0.0
0.0,0.2871838212013244
34.87217330932617,24.39081382751465
0.0,0.0
0.0,0.0
0.0438855737447738,0.0
0.0,0.0
0.3676567673683166,0.0
0.0,0.0
0.0,0.0
0.0511649399995803,0.0
0.0,0.0
0.0,0.0
0.0,0.0
0.0833877697587013,0.0
0.0,0.0
0.0,0.0
0.0,0.0
45.01585388183594,34.894134521484375
0.0802075564861297,0.0
0.0,0.0
0.0,0.0
0.1056727916002273,0.0
63.70024108886719,75.8352279663086
0.0136329978704452,0.0
0.0,0.0
38.357540130615234,27.681079864501957
0.1236306279897689,0.0
0.0,0.0
19.63585090637207,17.259334564208984
34.729251861572266,34.36955261230469
0.0,0.0
0.0,0.8866192102432251
0.0,0.0
0.0843445062637329,0.0
0.0,0.0
0.0,0.0
0.1649152934551239,0.0
0.0,0.0
0.080324575304985,0.0
0.0,0.0
0.25705486536026,0.0
0.0585246533155441,0.0
57.6052360534668,73.794189453125
0.0645221322774887,0.0
21.9575309753418,21.23394203186035
19.870349884033203,18.29172706604004
45.60300064086914,44.77119827270508
0.0,0.0
0.0630514025688171,0.0
83.69971466064453,85.69656372070312
44.065338134765625,47.74802780151367
0.3841219544410705,0.0
0.0,0.0
0.0,0.0
0.0,0.0
0.280183732509613,0.0
29.38099479675293,17.10808563232422
0.1150438487529754,0.0
0.0,1.0838310718536377
0.0,0.0
0.061955839395523,0.0
0.1020354852080345,0.0
0.0,0.0
25.73133659362793,23.90778350830078
0.2221222072839737,0.0
0.1606984138488769,0.0
0.0986063033342361,0.0
20.144790649414062,20.41776466369629
0.0,0.0
0.2879018783569336,0.0
0.0,0.0
0.0,0.0
0.0752810984849929,0.0
1.0742990970611572,0.0
0.0,0.0
0.0523546189069747,0.0
0.0,0.0
70.75006103515625,84.08861541748047
0.0,0.0
0.0,0.0
50.091339111328125,48.39064025878906
0.0012248009443283,0.0
0.0,0.0
0.0,0.0
0.076939471065998,0.0
27.684844970703125,29.68490600585937
0.0,0.0
26.463289260864254,24.25994873046875
0.1189059615135192,0.0
0.0,0.0
0.1711189597845077,0.0
0.0,0.0
0.1079840809106826,0.0
0.0,0.0
0.1643089056015014,0.0
0.0,0.0
0.0,0.0
0.1845904141664505,0.0
28.299211502075195,27.127761840820312
0.0,0.0
0.1457805335521698,1.000111699104309
0.0,0.0
0.1813904196023941,0.0
0.0,0.0
53.49263000488281,54.04942321777344
0.0,0.0
0.0,0.0
30.282188415527344,20.45758056640625
0.0,0.0
0.0402376800775527,0.0
0.164435863494873,0.0
0.0,0.0
0.0,0.0
0.0,0.0
45.70702362060547,46.2476692199707
0.5260197520256042,0.0
0.0,0.0
0.0,0.0
0.211631491780281,0.0
0.0,0.0
0.0686661824584007,0.0
21.9727840423584,21.549951553344727
53.47049331665039,65.0953140258789
0.0328374952077865,0.0
0.0875905305147171,0.2051429450511932
0.4142858386039734,0.0
0.0,0.0
0.3813391327857971,0.0
0.0,0.0
26.184925079345703,28.535625457763672
0.0323772430419921,0.0
0.0,0.0
0.0,0.0
0.0,0.0
0.0,0.0
0.1592341810464859,0.0
0.0211166888475418,0.0
0.324013352394104,0.0
34.66364669799805,26.095874786376957
0.0,0.6934748291969299
0.0,0.0
0.0,0.0
0.0,0.0
0.0,0.0
0.0719029158353805,0.0
0.0071860253810882,0.0
0.0,0.0
25.95697593688965,25.74421119689941
32.68581771850586,30.93162727355957
51.810794830322266,42.65913009643555
0.0190906226634979,0.0
27.515670776367188,26.351001739501957
0.0,0.0
0.0,0.0
32.22986602783203,29.98109245300293
0.0,0.0
41.20124053955078,17.682947158813477
0.3228029012680053,0.0
0.0,0.0
0.0,0.0
0.0,0.0
0.1657131016254425,0.0
0.5078381896018982,0.0
0.0,0.0
0.0627580434083938,0.0
0.2055753618478775,0.0
0.0,0.4274237155914306
0.126095712184906,0.0
18.34402084350586,16.884075164794922
0.0,0.0
0.3296709656715393,0.0
0.0810299441218376,0.0
0.0152210295200347,0.0
0.0,0.0
0.0511483997106552,0.0
0.0932375639677047,0.0
0.0053704977035522,0.0
0.0,0.0
0.0225896090269088,0.0
0.0626071840524673,0.0
0.322499930858612,0.0
0.2746385931968689,0.0
61.42593383789063,64.37967681884766
0.1900826692581176,0.0
0.0,0.0
0.0,0.0
0.030798003077507,0.0
0.0,0.0
0.0911562740802764,0.0
0.1239333003759384,0.0
0.0,0.0
0.0844175294041633,0.0
0.0,0.0
0.0,0.0
0.0562812536954879,0.0
0.0286728143692016,0.0
0.0,0.0
20.58202743530273,19.456205368041992
0.0,0.0
0.1235355138778686,0.0
0.0,0.0
0.0,0.0
0.0,0.0
40.95270156860352,43.07998275756836
0.0,0.0
0.1421366184949875,0.0
18.350231170654297,16.586467742919922
0.0,0.0
0.1378774493932724,0.0
0.0,0.0
1.1108028888702393,0.0
23.871660232543945,22.003026962280277
0.018296018242836,0.0
0.0407775789499282,0.0
0.0,0.0
0.1011796742677688,0.0
0.0,0.0
0.0,0.0
0.0356169492006301,0.0
0.0,0.0
30.84893226623535,36.13451766967773
42.53103256225586,43.11870574951172
0.2277219593524933,0.0
0.0,0.0
0.0767733454704284,0.0
0.0,0.0
0.0434326082468032,0.0
0.1706763952970504,0.0
0.0,0.0
0.0,0.0
0.0,0.0
0.0,0.0
0.1685050576925277,0.0
0.2855430841445923,0.0
42.0605583190918,32.78761672973633
0.1393471211194992,0.0
0.0,0.0
25.26386260986328,19.79079818725586
0.0,0.0
0.0,0.0
0.0,0.0
0.329760730266571,0.0
0.1257489174604416,0.0
0.0,0.0
0.0,0.0
0.0,0.0
0.0,0.0
0.1258019655942917,0.0
0.0,0.0
0.0,0.0
27.47136116027832,33.54171371459961
0.2410044819116592,0.0
0.0,0.0
0.0191356837749481,0.0
0.0,0.0
0.0283996611833572,0.0
0.3461005091667175,0.0
30.659040451049805,35.009220123291016
0.0,0.0
0.0,0.0
0.0946923941373825,0.0
0.2230897098779678,0.0
34.165035247802734,33.036109924316406
0.0,0.0
0.7842215299606323,0.0
52.06692886352539,46.29125213623047
0.0,0.0
0.0,0.0
0.0,0.0
0.2666225731372833,0.0
0.0392711609601974,0.0
0.1215661019086837,0.0
0.2589500546455383,0.0
18.689401626586918,17.829965591430664
0.0,0.0
0.0,0.0
0.0,0.0
0.0,0.0
37.22224807739258,30.73939514160156
0.0,0.0
0.0,0.0
0.0902582481503486,0.0
0.0,0.0
0.0427472740411758,0.0
0.3570632934570312,0.0
0.0,0.0
0.0,0.0
0.010362759232521,0.0
0.0,0.0
0.0,0.0
0.0,0.0
0.0,0.0
0.0,0.0
0.0,0.0
0.0,0.0
41.3764877319336,43.37297058105469
0.0,0.0
0.1304016262292862,0.0
0.0,0.0
0.0,0.0
0.0,0.0
0.1714230328798294,0.0
0.0,0.0
0.0358974784612655,0.0
0.0,0.0
0.0,0.0
0.0865484327077865,0.0
0.0367781966924667,0.0
0.0,0.0
0.0,0.0
42.88750076293945,47.14681625366211
0.1634643226861953,0.0
37.37172317504883,20.14627456665039
0.0,0.0
0.0337797701358795,0.0
0.0,0.0
24.63832092285156,18.79642677307129
0.0607898831367492,0.0
0.1804046481847763,0.0
0.0,0.0
0.0097053498029708,0.0
47.60354232788086,28.019285202026367
0.0,0.0
0.0,0.0
0.0,0.0
0.0,0.0
0.0,0.0
0.0,0.0
0.0,0.0
0.0,0.0
0.0,0.0
63.26548767089844,81.65734100341797
0.1301569789648056,0.0
0.1247626692056655,0.0
0.0,0.0
48.90869903564453,41.8858528137207
0.0570006072521209,0.0
0.0,0.0
0.0,0.0
0.0,0.0
67.20896911621094,72.46870422363281
0.0,0.0
0.1057832986116409,0.0
0.0,0.0
0.272269606590271,0.0
0.0,0.0
63.01598358154297,80.16149139404297
0.0279719978570938,0.0
0.0,0.0
41.51529312133789,47.65369415283203
0.0,0.0
0.2832866609096527,0.0
0.4502168893814087,0.0
0.082254484295845,0.0
37.171295166015625,38.58921432495117
58.578033447265625,67.51214599609375
0.0,0.0
0.0,0.0
0.0,0.0
0.0,0.0
0.0,0.0
0.0229074507951736,0.0
37.40476989746094,40.49542999267578
0.0,0.0
0.0,0.0
56.035831451416016,56.03946304321289
0.1499689370393753,0.0
0.0,0.0
0.1234852075576782,0.0
0.1337006241083145,0.0
0.0700709596276283,0.0
0.0,0.0
0.0,0.0
0.0,0.0
0.2069423049688339,0.0
0.0,0.1001113131642341
0.0687164515256881,0.0
0.0431588143110275,0.0
0.4198713898658752,0.0
0.1246948391199112,0.0
0.0,0.0
0.1056756824254989,0.0
0.0,0.0
0.0,0.0
0.1750320047140121,0.0
0.0,0.0
27.582195281982425,24.91670036315918
0.4331088066101074,0.0
0.0,0.0
0.0,0.0
0.1035024225711822,0.0
0.0104629844427108,0.0
0.2195919603109359,0.0
0.0939196497201919,0.0
29.601242065429688,27.47405433654785
0.0,0.0
0.1001821011304855,0.0
0.2728294730186462,0.0
0.0,0.0
0.0,0.0
0.1904643774032592,0.0
0.0,0.0
25.109180450439453,21.79662704467773
58.01755142211914,61.6064567565918
0.0852619260549545,0.0
0.0,0.0
2.7122550010681152,0.0
0.1049147546291351,0.0
0.0,0.0
34.7601432800293,31.642845153808597
0.2373674064874649,0.0
0.0,0.0
0.0,0.0
0.0,0.0
0.0361014157533645,0.0
0.3184937834739685,0.0
31.215133666992188,30.615873336791992
26.988792419433597,22.35029602050781
49.5749626159668,43.19485855102539
0.0365550369024276,0.0
0.0,0.0
0.1017940938472747,0.0
0.3093084096908569,0.0
0.0,0.0
0.0,0.0
0.1088390052318573,0.0
0.0125799775123596,0.0
0.2174150496721267,0.0
41.78449249267578,39.6411018371582
0.0,0.0
0.0,0.0
0.1812814176082611,0.0
0.2118324190378189,0.0
0.0,0.0
0.0070885270833969,0.0
0.087596096098423,0.0
0.140964925289154,0.0
0.233701154589653,0.0
0.0,0.0
22.79010772705078,22.80614852905273
0.1218934804201126,0.7715855836868286
63.26851272583008,71.80921173095703
0.1069160550832748,0.0
0.0664623826742172,0.0
22.015932083129883,17.744956970214844
0.0,0.0
0.5261677503585815,0.0
0.0818407088518142,0.0
0.0,0.0
0.0,0.0
0.0,0.0
0.0028387606143951,0.0
0.0,0.0
0.0,0.0
0.0,0.0
0.1094956248998642,0.0
29.096620559692383,27.66599464416504
0.0,0.0
0.0,0.0
0.0,0.0
0.0,0.0
0.0,0.0
23.21790313720703,18.083648681640625
0.0,0.0
0.0,0.0
0.029988944530487,0.0
0.5979034304618835,0.0
0.0,0.0
0.0,0.0
0.1634239256381988,0.0
0.1205020397901535,0.0
0.0394186675548553,0.0
0.0,0.0
0.0,0.0
0.0,0.0
0.0124116837978363,0.0
0.089808776974678,0.0
0.0430929660797119,0.0
0.0,0.0
0.0,0.0
12.465083122253418,16.27909278869629
0.0,0.0
21.048250198364254,18.67703437805176
0.0,0.0
0.1260880976915359,0.0
0.0790627151727676,0.0
0.0,0.0
0.0,0.0
0.0203650146722793,0.0
0.0,0.0
0.016191616654396,0.0
0.0,0.0
0.0,0.0
0.1280403584241867,0.0
0.0,0.0
0.2027287632226944,0.0
0.0917787253856659,0.0
62.0263557434082,59.97669982910156
0.2215394824743271,0.0
0.0709721148014068,0.0
0.1563984900712967,0.0
0.0,0.0
0.0,0.0
37.85102844238281,34.32118225097656
60.94371032714844,56.67237854003906
0.1869128942489624,0.0
32.72298812866211,30.18326568603516
0.2073970437049865,0.0
0.0,0.0
0.1612226516008377,0.0
61.1932373046875,61.27699279785156
0.2683005332946777,0.0
0.0,0.0
57.75523376464844,56.25895690917969
0.2448135465383529,0.0
75.83433532714844,85.67027282714844
0.0,0.0
0.0,0.0
0.0,0.0
1.2198997735977173,0.0
0.3329826891422272,0.0
0.0,0.0
0.003173217177391,0.0
0.4785090088844299,0.0
0.0,0.0
77.16791534423828,85.41992950439453
39.09694290161133,36.79731750488281
0.0,0.0
0.0,0.0
0.0,0.0
0.1677538603544235,0.0
0.055205300450325,0.0
0.127291738986969,0.0
0.1304294466972351,0.0
0.2497506141662597,0.0
0.0359183400869369,0.0
0.0302753746509552,0.0
30.729888916015625,22.68350982666016
0.0,0.0
21.57065773010254,54.52299499511719
60.03750991821289,40.61736679077149
0.05319045484066,0.0
0.0,0.0
0.0,0.0
19.078123092651367,20.97948455810547
0.071399413049221,0.0
0.0,0.0
25.84856986999512,29.660058975219727
0.0,0.0
0.0,0.0
0.0,0.0
0.0,0.0
0.0,0.0
0.0,0.0
0.0,0.0
0.1481637060642242,0.0
0.0,0.0
0.0,0.0
0.0,0.0
0.0,0.0
0.3125325441360473,0.0
0.0,0.0
0.0114596933126449,0.0
0.0,0.0
0.1159964948892593,0.0
0.0110765844583511,0.0
0.0,0.0
0.0,0.0
75.99468994140625,80.66275787353516
0.1172602921724319,0.0
0.7043752670288086,0.0
0.0815785452723503,0.0
0.0,0.0
0.2549492120742798,0.0
0.2223698794841766,0.0
0.3523951172828674,0.0
0.0,0.0
0.0514364391565322,0.0
0.0,0.0
0.149379551410675,0.0
0.0,0.0
0.0,0.0
0.0,0.0
0.1964064985513687,0.0
0.0,0.0
28.778982162475582,21.010913848876957
0.0,0.0
0.2050696760416031,0.0
0.076223574578762,0.0
0.0,0.0
31.869163513183597,21.592491149902344
36.730228424072266,34.0003776550293
0.0,0.0
0.0180401504039764,0.0
23.77736091613769,23.16887092590332
0.0,0.0
0.0,0.164699375629425
0.062336727976799,0.0
49.515655517578125,50.943809509277344
0.0,0.0
0.0,0.0
0.056320309638977,0.0
0.0,0.0
0.1192403882741928,0.0
0.0,0.0
0.0,0.0
0.0,0.0
0.0,0.0
0.1198436915874481,0.0
0.0750579982995987,0.0
0.0,0.0
0.0631799697875976,0.0
0.0,0.0
0.0,0.0
0.0,0.0
0.0,0.0
0.5653356313705444,0.0
0.0076497197151184,0.0
0.0,0.0
0.0,0.0
0.1359118968248367,0.0
0.0,0.0
0.0,0.0
0.0337404757738113,0.0
0.3846872448921203,0.0
0.0,0.0
0.0,0.0
18.39459991455078,18.118350982666016
0.1459680348634719,0.0
0.0,0.0
0.1827909052371978,0.0
0.0,0.0
22.937753677368164,21.55464744567871
0.0375266969203949,0.0
0.0958482176065445,0.0
0.0,0.0
0.0,0.0
29.49348258972168,21.612497329711918
0.1121088042855262,0.0
0.0,0.0
0.0,0.0
0.0,0.0
0.0,0.0
0.0,0.0
0.0,0.0
0.2712177634239197,0.0
43.12044525146485,44.03051376342773
0.0,0.0
0.0,0.0
0.0,0.0
0.0,0.0
0.0053410679101943,0.0
71.15304565429688,76.86714935302734
0.0,0.0
52.571590423583984,55.64821243286133
0.0483341068029403,0.6641427278518677
0.0,0.0
0.0,0.0
0.0,0.0
22.4943790435791,21.05349540710449
0.0,0.0
0.5172317028045654,0.0
0.0653128027915954,0.0
24.58119010925293,21.21739196777344
0.0,0.0
0.0386176705360412,0.0
0.0200592726469039,0.0
0.0,0.0
0.0973670482635498,0.0
0.0,0.0
0.0045759826898574,0.0
0.0,0.0
0.0719031542539596,0.6403584480285645
0.2312474697828292,0.0
0.0,0.0
0.0,0.0
0.0,0.0
0.0,0.0
62.33879852294922,73.06524658203125
0.0,0.0
0.0173357427120208,0.0
27.116697311401367,26.068065643310547
23.71854591369629,32.92876434326172
25.56846237182617,32.67164611816406
0.0869346410036087,0.0
53.31582260131836,55.98812484741211
0.0,0.0
2.115736722946167,1.1636778116226196
0.1620833277702331,0.0
0.0,0.0
0.0248379260301589,0.0
0.0,0.0
0.0,0.0
16.094562530517578,15.560009002685549
0.0,0.0
0.0882877260446548,0.0
0.0,0.0
0.0735747963190078,0.5987250804901123
30.890119552612305,26.629959106445312
0.2743939161300659,0.0
0.0,0.0
0.118274912238121,0.0
0.0,0.0
0.0,0.0
42.01289367675781,43.09349822998047
0.0665757209062576,0.0
28.81533432006836,28.640289306640625
0.0,0.0
0.0,0.0
0.093764454126358,0.0
0.0782667845487594,0.0
0.0,0.0
0.0,0.0
31.060182571411133,26.22121810913086
0.0,0.0
0.0,0.0
0.0,0.0
0.0,0.0
0.0646964162588119,0.0
0.153846189379692,0.0
0.0,0.0
0.0873551368713378,0.0
0.0925142019987106,0.0
0.004533365368843,0.0
0.0240204632282257,0.0
0.0271284878253936,0.0
0.1217364817857742,0.0
0.0424499958753585,0.0
0.114914447069168,0.0
0.0513199418783187,0.0
30.764625549316406,28.985109329223636
0.0,0.0
0.4475182294845581,0.0
48.09636688232422,49.32783508300781
0.0761127024888992,0.0
0.3837629556655884,0.0
0.0,0.0
0.0,0.0
0.0,0.0
0.0487271100282669,0.0
0.0,0.0
0.0475219339132308,0.0
0.1400463134050369,0.0
0.0,0.0
37.442527770996094,21.4897575378418
0.0,0.0
0.0,0.0
0.6198550462722778,0.0
0.2247521430253982,0.0
44.25053787231445,43.499488830566406
0.0,0.0
0.1120513975620269,0.0
0.1082146316766738,0.0
0.0155903548002243,0.0
0.0,0.0
0.0,0.0
0.2398360222578048,0.0
0.0,0.0
34.74283599853516,31.92521095275879
0.023245170712471,0.0
0.0,0.0
0.0341256111860275,0.0
0.0,0.0
0.0856959819793701,0.0
53.902435302734375,52.13011169433594
0.0,0.0
4.67449426651001e-05,0.0
0.0205965787172317,0.0
0.0,0.0
20.04215431213379,17.575927734375
0.0,0.0
0.0183322578668594,0.0
0.0,0.0
0.2728038430213928,0.0
0.0,0.0
0.0723098516464233,0.0
0.0,0.0
0.0,0.0
0.2663878202438354,0.0
0.0,0.0
0.1717679351568222,0.0
0.0,0.0
0.0,0.0
0.0,0.0
59.538822174072266,51.833457946777344
0.0,0.0
0.0696850270032882,0.0
0.0231377631425857,0.0
40.56180191040039,43.8311882019043
0.0965771675109863,0.0
0.0,0.0
0.2303558439016342,0.0
0.0,0.0
0.0,0.0
0.8476965427398682,0.0
1.259552836418152,0.0
0.2155908793210983,0.0
0.0434042960405349,0.0
0.0772237479686737,0.0
0.074451059103012,0.0
0.0,0.0
0.0461516678333282,0.0
0.0571813881397247,0.0
0.0,0.0
0.0,0.0
0.0,0.0
27.186744689941406,18.075639724731445
0.0,0.0
0.0188124030828475,0.0
0.1095392704010009,0.0
0.0,0.0
0.0,0.0
0.1481942981481552,0.0
0.0,0.0
0.0817095041275024,0.0
0.0,0.0
0.0119880139827728,0.0
0.0169827044010162,0.0
0.0,0.0
0.1231665983796119,0.0
0.0812618508934974,0.0
0.0,0.0
72.17037963867188,84.55241394042969
0.0,0.0
24.35748672485352,18.47988510131836
0.0,1.1917407512664795
0.0,0.0
0.0517186969518661,0.0
0.0528827160596847,0.0
0.5298530459403992,0.0
0.0,0.0
28.4031982421875,23.036630630493164
58.27067565917969,69.892578125
19.98691940307617,17.763795852661133
0.0563236325979232,0.0
60.31650924682617,83.44581604003906
0.0,0.0
0.0,0.0
24.177343368530277,21.86121940612793
0.0183976590633392,0.0
0.0,0.0
0.0,0.0
45.51523971557617,48.0088996887207
0.0235184878110885,0.0
0.0,0.0
27.13146209716797,18.35548591613769
0.0603703409433364,0.0
0.0,0.0
0.0343072861433029,0.0
0.0,0.0
1.321919322013855,0.0
0.0,0.0
22.814720153808597,18.09003448486328
0.0,0.0
0.04280586540699,0.0
0.0,0.0
0.2172149270772934,0.0
0.0,0.0
39.75472640991211,35.50391387939453
0.0159991979598999,0.0
0.8588605523109436,0.0
0.3315442204475403,0.0
0.0,0.0
0.1819768399000167,2.0645313262939453
0.0,0.0
54.02482223510742,76.49259948730469
27.481285095214844,30.564058303833008
22.105588912963867,17.941478729248047
0.0452978163957595,0.0
0.0,0.0
0.0,0.0
0.2521576881408691,0.0
0.1356793195009231,0.0
0.0296971946954727,0.0
0.0,0.0
0.5839771628379822,0.0
0.0,0.0
1.3219388723373413,0.0
0.0,0.0
54.1594123840332,51.79690933227539
0.0235706567764282,0.0
0.1319757103919983,0.0
0.1237775087356567,0.0
0.0,0.0
0.0,0.0
0.0,0.0
0.0,0.0
0.21845243871212,0.0
0.0,0.0
0.0557504892349243,0.0
0.0,0.0
0.0,0.0
0.1573827415704727,0.0
0.1035775691270828,0.0
47.26655197143555,48.54105758666992
28.74579429626465,28.72961807250977
0.6804835796356201,0.0
0.0,0.0
0.0,0.0
0.0,0.0
0.0,0.0
0.0,0.0
41.439453125,28.907798767089844
0.0,0.0
0.0223984867334365,0.0
23.91342544555664,18.354795455932617
0.0,0.0
0.0,0.0
0.163276270031929,0.0
0.0278413146734237,0.0
0.1939897239208221,0.0
0.0,0.0
0.0851827636361122,0.0
0.0440411120653152,0.0
54.00257110595703,72.39569091796875
0.0486030578613281,1.7143983840942385
0.2254440933465957,0.0
0.0,0.0
0.0,0.0
0.1617558598518371,0.0
0.0,0.0
0.1773879081010818,0.0
0.0,0.0
0.2439167946577072,0.0
0.0,0.0
0.0829025208950042,0.0
0.0,0.0
0.0990042090415954,0.0
0.30877685546875,0.0
0.0,0.0
0.0,0.0
0.142009437084198,0.0
33.096736907958984,40.82161331176758
21.800596237182617,24.60793113708496
17.859094619750977,19.624866485595703
0.0,0.0
51.685821533203125,56.61355972290039
0.1834505349397659,0.0
0.0,0.0
0.0,0.0
0.0,0.0
0.0,0.0
0.0,0.0
0.0,0.0
0.0451235026121139,0.0
21.056400299072266,28.761621475219727
0.0,0.0
0.0,0.0
0.0,0.0
0.2212864607572555,0.0
0.0,0.0
0.0,0.0
0.0,0.0
50.54206466674805,55.06927108764648
0.0,0.0
0.0,0.0
0.0908596366643905,0.0
32.556732177734375,23.521221160888672
0.0,0.0
0.0661878138780593,0.0
0.0,0.0
0.0,0.0
0.0458734035491943,0.2638389468193054
53.48432159423828,40.64143371582031
0.0,0.0
0.0523875653743743,0.0
0.373934805393219,0.0
0.7960150837898254,0.0
0.0,0.0
0.0,0.0
0.157333567738533,0.0
0.0,0.0
0.0797285586595535,0.0
0.0096976608037948,0.0
0.0,0.0
0.0,0.0
0.0,0.0
0.0,0.0
0.0,0.0
0.0,0.0
0.2184874266386032,0.0
0.3672549724578857,0.0
0.0,0.0
0.239088237285614,0.0
0.0152736157178878,0.0
0.0,0.0
0.2810989022254944,0.0
59.77525329589844,62.433631896972656
0.0057799369096755,0.0
84.34526824951172,88.05168151855469
0.0,0.0
0.0,0.0
0.0383351296186447,0.0
27.348283767700195,22.640426635742188
37.91950988769531,41.42316055297852
0.0,0.0
1.5880860090255735,0.0
41.5106086730957,30.752613067626957
42.65508270263672,54.31990051269531
0.0,0.0
0.0,0.0
21.969921112060547,31.76567268371582
0.0414844304323196,0.0
0.1195203512907028,0.0
0.0,0.0
0.0,0.0
0.0555265396833419,0.0
0.0,0.0
74.9483413696289,86.5405044555664
0.0,0.0
0.2214767783880233,0.0
0.1170233339071273,0.0
0.0,0.0
0.0263748914003372,0.0
58.6226806640625,63.49705505371094
0.1465103179216385,0.0
0.0321311503648757,0.0
0.211575835943222,0.0
0.0,0.0
0.0,0.0
0.0453777760267257,0.0
0.1082576811313629,0.0
0.0,0.0
0.0973030850291252,0.0
0.0413066446781158,0.0
34.159812927246094,22.01273536682129
0.179901048541069,0.0
0.0,0.0
0.3638265132904053,0.0
0.0865542441606521,0.0
0.0,0.0
0.0728556662797927,0.0
0.050092801451683,0.0
0.0769581347703933,0.0
0.2166061252355575,0.0
0.0,0.0
0.0,0.0
0.0,0.0
0.0224206894636154,0.0
0.12492136657238,0.0
0.1568377763032913,0.0
0.228472039103508,0.0
0.0,0.0
0.1513404697179794,0.0
0.0369974821805954,0.0
0.0,0.0
0.1541847586631775,0.0
0.0,0.0
33.061256408691406,35.411434173583984
0.0,0.0
0.0,0.0
0.0,0.0
0.086205206811428,0.0
0.2345252931118011,0.0
38.68572235107422,33.33598709106445
0.0276013761758804,0.0
0.3473212718963623,0.0
0.0214727967977523,0.0
0.0,0.0
0.0,0.0
0.0,0.0
0.1868456304073333,0.0
0.1158489137887954,0.0
0.0,0.0
0.0921422094106674,0.0
0.1410367041826248,0.0
54.30504989624024,49.58177947998047
0.0,0.0
0.0962783247232437,0.0
0.1582961529493332,0.0
0.0,0.0
0.0,0.0
1.951281189918518,0.0
0.053801879286766,0.0
0.0,0.0
0.0752549022436142,0.0
0.0,0.0
0.0,0.0
0.0726679414510726,0.0
0.0675005316734314,0.0
0.0,0.0
0.0,0.0
0.0,0.0
23.947364807128903,25.18118667602539
0.0,0.0
0.0,0.0
0.0,0.0
25.88253402709961,20.84984588623047
0.0,0.0
71.65695190429688,83.65129852294922
49.34286117553711,47.838775634765625
33.556888580322266,23.984134674072266
0.1034054085612297,0.0
42.85000228881836,22.853076934814453
22.800857543945312,22.136598587036133
0.0,0.0
0.0,0.0
0.0,0.0
0.0,0.0
0.0,0.0
25.23038673400879,24.420154571533203
0.0835971608757972,0.0
0.0,0.0
0.0457055270671844,0.0
0.2873768210411072,0.0
0.3010743856430053,0.0
0.2487339526414871,0.0
41.99420547485352,40.86223983764648
0.0,0.0
0.0,0.0
0.0,0.0
0.0,0.0
0.0,0.0
0.0156048387289047,0.0
0.0836597979068756,0.0
0.161684975028038,0.0
0.0040273070335388,0.0
0.0,0.0
0.0852942466735839,0.0
0.1476871520280838,0.0
0.0,0.0
39.05164337158203,39.60724639892578
43.93478393554688,42.36977767944336
34.04273223876953,33.094390869140625
0.1162018328905105,0.0
0.0,0.0
0.5921790599822998,0.0
0.0101012736558914,0.0
0.0,0.0
0.0,0.0
0.0,0.0
0.0,0.0
0.0,0.0
0.15394227206707,0.0
0.0528589785099029,0.0
0.1497606784105301,0.0
0.1487468928098678,0.0
0.1296084970235824,0.0
0.0,0.0
35.67868423461914,37.14699172973633
0.0,0.0
0.0,0.0
0.2863391637802124,0.0
0.0,0.0
0.3022627234458923,0.0
0.0,0.0
0.0,0.0
0.2594289183616638,0.0
0.0,0.0
0.0711872577667236,0.0
0.0,0.0
0.0,0.0
0.189652606844902,0.0
67.05860900878906,66.40928649902344
0.2293456643819809,0.0
0.1623508036136627,0.0
0.1127005070447921,0.0
0.1719459742307663,0.0
0.0,0.0
0.0,0.0
0.0,0.0
0.0,0.0
0.0,0.0
0.0569980889558792,0.0
0.0157726258039474,0.0
0.0,0.0
0.1022106856107711,0.0
0.0482604354619979,0.0
30.144460678100582,38.48256301879883
31.59941291809082,33.60475158691406
22.21525382995605,26.63243293762207
0.1219239085912704,0.0
52.125732421875,36.47026062011719
0.2251704484224319,0.0
0.3299658894538879,0.0
0.0,0.0
0.0869755148887634,0.0
0.2947393655776977,0.0
36.77792739868164,43.987789154052734
0.0503890067338943,0.0
0.5018873810768127,0.0
0.0,0.0
0.0,0.0
0.3124837279319763,0.0
0.1100219637155532,0.0
0.0,0.0
28.71005249023437,22.567514419555664
0.0,0.0
0.0288280993700027,0.0
0.0,0.0
0.0,0.0
0.0,0.0
0.0,0.0
0.1139168962836265,0.0
0.0833461433649063,0.4364337921142578
0.0670334324240684,0.0
0.3877875208854675,0.0
0.0,0.0
0.0,0.0
0.0,0.0
0.0,0.0
1.0385992527008057,0.0
0.1198984831571579,0.0
0.0,0.0
0.0,0.0
0.0,0.0
0.0,0.0
0.0,0.0
0.0,0.0
0.0398327708244323,0.0
36.04792022705078,31.63287353515625
0.6789064407348633,0.0
0.1114833131432533,0.0
0.0,0.0
0.0436924993991851,0.0
0.0946953743696212,0.0
0.0,0.0
0.0253244638442993,0.0
37.44516372680664,39.44182586669922
0.0,0.0
26.232072830200195,17.594512939453125
29.581811904907227,23.353986740112305
0.1104893684387207,0.0
0.0,0.0
0.3733022809028625,0.0
0.0,0.0
18.94880485534668,17.179052352905273
0.0,0.0
0.0474835634231567,0.0
0.0,0.0
29.58561515808105,23.4220027923584
41.71500396728516,45.06713104248047
0.0397553890943527,0.0
26.106447219848636,30.212358474731445
0.1128555983304977,0.0
0.0058890134096145,0.0
0.1186611652374267,0.0
22.718246459960938,21.46996688842773
0.1780716776847839,0.0
0.0,0.0
0.0955782681703567,0.0
57.30860137939453,67.67076110839844
0.0,0.0
0.0858813375234603,0.0
0.0029156059026718,0.0
0.265335202217102,0.0
0.310979276895523,0.0
0.0878389924764633,0.0
0.1569932997226715,0.0
0.0,0.0
0.1241535991430282,0.0
30.090805053710938,24.97331047058105
35.55570983886719,31.848419189453125
0.0,0.0
0.1049587279558181,0.0
22.23081588745117,22.38846778869629
39.04973220825195,43.67206573486328
63.90203857421875,84.62591552734375
0.0,0.0
0.0,0.0
30.00888442993164,39.47575378417969
0.0,0.0
0.0,0.0
27.027196884155277,24.20436668395996
0.1167042851448059,0.0
0.0,0.0
0.0,0.0
0.0,0.0
0.1201618164777755,0.0
0.1635654419660568,0.0
0.0,0.0
0.101217046380043,0.0
62.13833618164063,77.5879135131836
0.0199245363473892,0.0
46.81048202514648,36.798526763916016
0.0,0.0
76.42353057861328,90.0945281982422
0.2146991491317749,0.0
0.0,0.0
0.0,0.0
31.460840225219727,44.33794021606445
0.0,0.0
0.0,0.0
52.0738639831543,69.89750671386719
0.1322431564331054,0.0
0.0,0.0
0.3872137367725372,0.0
0.1233431622385978,0.0
28.681161880493164,26.037961959838867
0.0,0.0
0.0,0.0
0.0,0.0
0.0754428654909133,0.0
0.1071503311395645,0.0
0.252756118774414,0.0
0.0849644392728805,0.0
52.7639274597168,66.7432861328125
0.1618304103612899,0.0
0.0829209387302398,0.0
0.0,0.0
0.0742861032485961,0.0
0.0,0.0
0.0,0.0
0.0,0.0
55.60558319091797,60.8837776184082
0.0640451163053512,0.0
0.0939917042851448,0.0
0.163939818739891,0.0
0.0906072258949279,0.0
0.0,0.0
0.0,0.0
0.1009618788957595,0.0
0.0,0.0
32.2720832824707,27.94832992553711
0.0193516612052917,0.0
0.0065959990024566,0.0
0.0,0.0
0.0,0.0
0.1252411752939224,0.0
51.04206848144531,55.3010368347168
0.0,0.0
0.0,0.0
0.0,0.0
0.0,0.0
0.0,0.0
0.0,0.0
0.0,0.0
0.1170202940702438,0.0
0.0,0.0
0.0,0.0
31.819578170776367,34.14220428466797
0.0,0.0
0.0655007511377334,0.0
26.712162017822266,21.764694213867188
0.0537565499544143,0.0
0.0,0.0
0.0,0.0
0.0,0.0
0.0,0.0
0.0,0.0
0.1235706359148025,0.0
0.1898250877857208,0.0
0.0821111127734184,0.0
0.0,0.0
0.121710255742073,0.0
0.2972378730773926,0.0
39.800628662109375,54.03985977172852
0.044130727648735,0.0
0.1729293763637542,0.0
21.114013671875,20.08782958984375
0.0,0.0
0.077608123421669,0.0
0.0,0.0
26.339603424072266,22.17699432373047
0.1348741501569748,0.0
0.0,0.0
0.0795269683003425,0.0
0.0,0.0
0.0,0.0
0.2236693650484085,0.0
0.0,0.0
0.0072036087512969,0.0
0.3607411980628967,0.0
0.0,0.0
0.0113040953874588,0.0
0.024445429444313,0.0
0.0,0.0
0.0,0.0
0.0,0.0
0.0,0.0
0.113580510020256,0.0
52.366973876953125,58.08894348144531
0.0,0.0
0.0,0.0
69.78587341308594,79.45161437988281
23.91067123413086,24.225217819213867
0.0,0.0
0.0,0.0
0.0,0.0
0.0124547332525253,0.0
0.0,0.0
0.1438451409339904,0.0
0.0,0.0
0.0,0.0
0.0,0.0
0.0,0.0
0.0166573673486709,0.0
19.157752990722656,17.040687561035156
49.18156433105469,47.24762344360352
19.5069580078125,17.06986427307129
0.0,0.0
0.0378675609827041,0.0
0.0627314001321792,0.0
0.0,0.0
0.2315103262662887,0.0
46.62668991088867,54.43418884277344
0.0,0.0
0.0,0.0
0.0,0.0
0.0179678201675415,0.6364468932151794
0.0,0.0
0.31875741481781,0.0
0.0,0.0
0.0,0.0
55.205169677734375,61.32513427734375
0.0,0.0
0.0490171909332275,0.0
0.2771844267845154,0.0
0.0,0.0
0.0218217372894287,0.0
0.0,0.0
0.0,0.218993067741394
0.0584353655576705,0.0
0.1070336550474166,0.0
0.0,0.0
0.0889004319906234,0.0
0.1553577631711959,0.0
0.4968481063842773,0.0
0.0,0.0
44.28907012939453,45.45735549926758
0.6281959414482117,0.0
0.0003829151391983,0.0
0.3205183744430542,0.0
0.0,0.0
0.0744970440864563,0.0
0.0,0.0
0.0,0.0
41.15353775024414,24.46658706665039
0.0,0.0
0.1753565520048141,0.0
0.0,0.0
0.0624967664480209,0.0
0.1991529613733291,0.0
0.0,0.0
0.0,0.0
0.0,0.0
0.1525090038776397,0.0
0.2531106472015381,0.0
0.0451092571020126,0.0
0.0,0.0
0.0,0.0
24.86067771911621,21.73787498474121
0.2163655906915664,0.0
0.0648537874221801,0.0
0.112800195813179,0.0
0.0579283386468887,0.0
0.3894267678260803,0.0
22.79068756103516,17.759599685668945
0.0725049972534179,0.0
0.0608675330877304,0.0
0.5837703347206116,0.0
51.47260284423828,63.27152633666992
0.250684380531311,0.0
0.0856565833091735,0.0
0.0,0.0
0.0238110870122909,0.0
0.0,0.0
51.666988372802734,55.286163330078125
0.0549872517585754,0.0
0.2940362691879272,0.0
0.0031214505434036,0.0
0.1358256638050079,0.0
19.72257232666016,18.846759796142575
0.0,0.0
0.0,0.0
0.1285787373781204,0.0
0.095683641731739,0.0
0.0498462915420532,0.0
0.0643186271190643,0.0
0.0594822913408279,0.0
0.1636153906583786,0.0
0.0366922169923782,0.0
0.0,0.0
22.67426109313965,17.34917449951172
0.0,0.0
0.0314150750637054,0.0
0.0986232310533523,0.0
0.2156810611486435,0.0
0.0,0.0
0.0138887017965316,0.0
0.1189126819372177,0.0
0.1012174785137176,0.0
0.0,0.0
0.0,0.0
0.0,0.5109180808067322
0.0,0.0
0.0,0.0
20.68515014648437,17.116548538208008
0.0,0.0
0.1157050877809524,0.0
0.0,0.0
24.23913955688477,22.49538803100586
0.0805799812078476,0.0
0.2671440839767456,0.0
0.1425760984420776,0.0
0.7299543619155884,1.0821276903152466
0.005226045846939,0.0
0.2319648116827011,0.0
0.0648939311504364,0.0
0.3348230123519897,0.0
0.0419462323188781,0.0
0.0,0.0
0.2285770624876022,0.0
0.1361401528120041,0.0
0.1497548222541809,0.0
0.0,0.0
62.83601379394531,58.45426177978516
53.73986053466797,43.9876708984375
0.0497804582118988,0.0
0.0607221126556396,0.0
24.5153865814209,18.574567794799805
0.2340543717145919,0.0
0.0656323432922363,0.0
0.0,0.0
72.20295715332031,86.86027526855469
0.0,0.0
0.2356920838356018,0.0
0.0491364747285842,0.0
0.0,0.0
0.0,0.0
0.0,0.0
0.1074104458093643,0.0
0.0,0.0
77.31339263916016,84.53680419921875
0.0,0.0
0.0145288109779357,0.0
0.0,0.0
0.2133590579032898,0.0
0.0,0.0
55.14769744873047,29.72809219360352
0.2251312583684921,0.0
0.1828322261571884,0.0
0.0,0.0
0.0,0.0
0.0073485523462295,0.0
0.0,0.0
0.0,0.0
0.3647248148918152,0.0
0.1685103923082351,0.0
0.017455980181694,0.0
0.3860944509506225,0.0
0.1789452135562896,0.0
0.1461887657642364,0.0
20.66719436645508,21.318294525146484
0.0,0.0
0.1024963706731796,0.0
0.0,0.0
0.0,0.0
0.0,0.0
0.0,0.0
0.0,0.0
0.2449085563421249,0.0
0.2270647585391998,0.0
35.073909759521484,33.27281188964844
0.0,0.0
0.0333400666713714,0.0
0.0,0.0
0.0,0.0
0.0904267132282257,0.0
0.0810538083314895,0.0
0.0,0.0
0.0,0.0
48.24077224731445,53.18320846557617
0.1843331009149551,0.0
0.0,0.0
0.0,0.0
0.0,0.0
0.0,0.0
0.149621233344078,0.0
0.0,0.0
0.0,0.0
0.0,0.0
0.0657504945993423,0.0
0.0304881483316421,0.0
0.0,0.0
0.0,0.0
0.038671538233757,0.0
0.0,0.0
0.2035339772701263,0.0
0.3383441567420959,0.0
0.0974937826395034,0.0
0.144277423620224,0.0
0.0,0.0
29.992595672607425,21.92514038085937
43.603797912597656,43.728660583496094
0.0,0.0
0.0459419190883636,0.0
0.0273730009794235,0.0
0.0,0.0
25.476776123046875,24.32965087890625
34.388858795166016,30.49097442626953
0.0,0.0
0.0,0.0
0.0,0.0
0.0303986519575119,0.0
0.1179099678993225,0.0
38.98895263671875,43.2191162109375
0.8802721500396729,0.0
67.96835327148438,74.79828643798828
0.0,0.0
0.0,0.0
0.2081615775823593,0.0
0.1604132801294326,0.0
0.0,0.0
0.1799531579017639,0.0
0.4480855464935303,0.0
0.0827140361070633,0.0
0.3898550868034363,0.0
0.0,0.0944354087114334
66.18006134033203,69.41271209716797
0.2738057971000671,0.0
0.0124558210372924,0.0
0.2480145543813705,0.0
27.876184463500977,30.31759452819824
0.0,0.0
0.0,0.0
56.435245513916016,68.52072143554688
0.1984313577413559,0.0
0.1981746256351471,0.0
0.08199343085289,0.0
0.2204954028129577,0.0
22.791927337646484,17.991487503051758
50.873497009277344,54.01041412353516
31.84421157836914,26.33487319946289
0.0,0.0
0.2225125432014465,0.0
0.1735347658395767,0.0
0.0,0.0
0.053513303399086,0.5222708582878113
0.1618426591157913,0.0
0.0,0.0
0.1649578213691711,0.0
0.4536575078964233,0.0
41.02436065673828,41.078163146972656
0.0652699917554855,0.0
0.1557355672121048,0.0
0.1016668230295181,0.0
0.0898957550525665,0.0
0.0,0.0
29.27301788330078,29.23133850097656
0.0,0.0
0.0,0.0
0.1240516901016235,0.0
0.0,0.0
0.0,0.0
0.0803241580724716,0.0
0.1215799897909164,0.0
18.35086250305176,15.814997673034668
0.0,0.0
0.3291839361190796,0.0
0.0057635754346847,0.0
0.1495339423418045,0.0
0.0,0.0
0.2486017644405365,0.0
64.51457214355469,65.25845336914062
20.944734573364254,17.93779754638672
0.0,0.0
0.0,0.0
0.0,0.0
0.0,0.0
0.0922799557447433,0.0
0.0,0.0
0.0452159792184829,0.0
71.69920349121094,85.1374282836914
0.0461587905883789,0.0
0.0,0.0
47.107887268066406,21.75343894958496
0.2262666672468185,0.0
0.3575117588043213,0.0
0.0,0.0
0.0,0.0
0.0666978061199188,0.0
16.903959274291992,17.556772232055664
0.2082949876785278,0.0
0.0,0.0
0.0,0.0
0.0184556543827056,0.0
0.0,0.0
0.0128296017646789,0.0
0.0520883798599243,0.0
0.0918697416782379,0.0
0.0,0.0
0.0,0.0
24.0509090423584,22.64168357849121
31.91841506958008,24.874984741210938
28.17044258117676,18.743690490722656
0.0,0.0
0.0,0.0
0.0,0.0
0.1622131019830703,0.0
0.0,0.0
0.0,0.0
0.0,0.0
67.4515380859375,81.93767547607422
0.0,0.0
0.0084618479013443,0.0
24.43222999572754,17.614879608154297
0.0,0.0
0.0,0.0
0.0,0.0
0.0631233751773834,0.0
0.0503549575805664,0.0
0.0,0.0
0.0389513075351715,0.0
0.0,0.0
45.88157653808594,44.45122528076172
0.0,0.0
0.2194188684225082,0.0
0.0,0.0
0.0,0.0
0.0674913227558136,0.0
44.180213928222656,44.90436553955078
0.3963974714279175,0.0
0.0,0.8969912528991699
0.2033397406339645,0.0
0.0,0.0
22.546920776367188,20.99627685546875
0.0,0.0
0.0744021981954574,0.0
0.1191475689411163,0.0
0.0,0.0
0.0,0.0
0.230166956782341,0.0
0.0,0.0
0.0,0.0
0.0,0.4001826047897339
0.0,0.0
0.1326454728841781,0.0
0.0805158466100692,0.0
0.0213875323534011,0.0
0.0810093432664871,0.0
0.2092423886060714,0.0
0.1138041913509368,0.0
0.1178298145532608,0.0
55.54986572265625,57.99399566650391
0.0905276387929916,0.0
34.308712005615234,28.8920841217041
0.1388025432825088,0.0
0.1728789210319519,0.0
0.0,0.0
0.0569375306367874,0.0
0.052364781498909,0.0
0.0,0.0
0.0,0.0
0.0,0.0
0.238396555185318,0.0
0.0,0.0
0.0,0.0
0.0864870399236679,0.0
0.0,0.0
0.0,0.0
70.81782531738281,77.62567901611328
0.0,0.0
0.0,0.0
0.0824965834617614,0.0
0.0,0.0
36.30546569824219,41.67023468017578
57.37898254394531,61.08959579467773
0.0886014401912689,0.0
0.1176439225673675,0.0
0.0,0.0
0.1980762630701065,0.0
0.0,0.0
0.1919824331998825,0.0
0.0,0.0
0.0,0.0
0.0,0.1054219901561737
0.1937557756900787,0.0
0.0902610570192337,0.0
0.0273355990648269,0.0
0.0,0.0
0.0544529259204864,0.0
0.0,0.0
0.1155198067426681,0.0
35.733062744140625,29.03291893005371
0.0365155786275863,0.0
0.4697650074958801,0.0
0.0,0.0
0.0357208400964736,0.0
0.4524204134941101,0.0
63.0135612487793,48.94379806518555
0.0,0.0
0.0,0.0
0.0,0.0
0.0944766849279403,0.0
0.2036052197217941,0.0
0.0696683526039123,0.0
0.0,0.0
0.0,0.0
0.050398364663124,0.0
0.0,0.0
0.0,0.0
0.2609316706657409,0.0
0.0,0.0
0.0,0.0
0.2147687524557113,0.0
0.0,0.0
78.91556549072266,86.94991302490234
0.0,0.0
0.123231828212738,0.0
33.840309143066406,39.711219787597656
0.0,0.0
0.0376283675432205,0.0
0.0771476626396179,0.0
0.2642669677734375,0.0
0.0,0.0
19.59614944458008,21.646411895751957
0.3574550151824951,0.0
0.007119745016098,0.0
0.0,0.0
0.0528711825609207,0.0
0.0,0.0
0.0,0.0
66.51760864257812,63.93065643310547
0.1460248678922653,0.0
0.3200846314430237,0.0
0.0,0.0
26.269432067871094,18.411983489990234
0.0223405808210372,0.0
0.0911252945661544,0.0
0.0,0.0
0.0,0.0
0.3681176304817199,0.0
0.0,0.0
0.3041231632232666,0.0
0.0022565275430679,0.0
0.019893392920494,0.2660847902297973
41.01918411254883,34.05183410644531
0.3493004441261291,0.0
0.0,0.0
0.0690688267350196,0.0
0.1840386241674423,0.0
0.0,0.0
0.0,0.0
26.764629364013672,22.32610893249512
0.1171323955059051,0.0
0.0184771865606308,0.0
0.315807044506073,0.0
0.0398291200399398,0.0
0.2465614825487136,0.0
0.1185384169220924,0.0
0.1713300198316574,0.0
0.2098080664873123,0.0
0.0,0.0
0.3847167491912842,0.0
0.0049298405647277,0.0
0.0,0.0
0.0,0.0
15.427149772644045,15.717608451843262
0.163118377327919,0.0
0.2096695899963379,0.0
0.2483340352773666,0.0
0.0,0.0
0.0,0.0
39.628231048583984,35.563072204589844
0.0,0.0
0.025923267006874,0.0
0.0,0.0
84.26991271972656,84.5660171508789
0.0,0.0
0.0,0.0
0.0,0.0
0.0,0.0
0.0,0.0
0.0,0.0
0.0974021479487419,0.0
0.5331001877784729,0.0
0.0695177167654037,0.0
36.25957489013672,31.35706901550293
0.0,0.0
0.0749157667160034,0.0
59.21555709838867,69.24756622314453
0.0204888731241226,1.5492945909500122
0.0947301387786865,0.0
0.1387280821800232,0.0
72.4810562133789,57.58371353149414
0.1214948445558548,0.0
0.0346771925687789,0.0
0.0,0.0
0.1086972206830978,0.0
0.0,0.0
0.0,0.0
0.1765190958976745,0.0
0.0,0.0
41.64191818237305,35.36048126220703
0.154661014676094,0.0
0.0403575897216796,0.0
57.045875549316406,70.21755981445312
31.176368713378903,23.24382972717285
0.1235066354274749,0.0
0.0,0.0
0.0,0.0
0.1040945202112197,0.0
0.0,0.0
0.0,0.0
30.620906829833984,23.08386993408203
0.0,0.0720489546656608
0.0,0.0
0.2237044870853424,0.0
0.0,0.0
25.63444709777832,41.280555725097656
0.0191104561090469,0.0
0.0,0.0
0.0398469716310501,0.0
0.0,0.0
0.1419641822576522,0.0
0.0,0.0
1.1224035024642944,0.0
0.0,0.0
0.2447628229856491,0.0
0.4401887655258178,0.0
0.1452059894800186,0.0
22.313405990600582,17.825101852416992
0.0552388429641723,0.0
54.17910385131836,52.34365081787109
0.0,0.0
0.0,0.0
0.0,0.0
0.0,0.0
0.0192776471376419,0.0
0.0,0.0
0.1655319333076477,0.0
0.0,0.0
0.0973654240369796,0.0
0.0,0.0
0.0,0.0
37.82250213623047,40.22916793823242
0.0,0.0
0.1426411867141723,0.0
0.0,0.0
0.1340700536966323,0.0
0.1198528334498405,0.0
0.2959477603435516,0.0
0.0,0.0
34.07317352294922,32.37337875366211
1.723497986793518,0.0
0.0,0.0
0.0,0.0
32.55180358886719,38.286617279052734
0.0,0.0
0.0,0.0
0.0,0.0
0.0,0.0
0.0298372656106948,0.0
0.0,0.0
0.0658755898475647,0.0
0.1072397455573082,1.1615092754364014
0.1612944155931472,0.0
0.0,0.0
0.1929118782281875,0.0
0.0676786303520202,0.0
0.0216047018766403,0.0
0.6085732579231262,0.0
0.1346927434206009,0.0
0.1441038697957992,0.0
0.0,0.0
0.0,0.0
0.0281147509813308,0.0
0.2316967695951461,0.0
0.179808422923088,0.0
0.1158999279141426,0.0
0.0,0.0
34.79344177246094,30.261383056640625
0.0,0.0
0.0,0.0
0.0,0.0
0.0,0.0
0.0,0.0
0.0,0.0
0.1005315482616424,0.0
64.74369049072266,73.89703369140625
0.1962118744850158,0.0
31.37203598022461,22.628250122070312
77.25480651855469,82.16664123535156
0.0,0.0
69.67896270751953,57.60062789916992
0.0,0.0
0.0083400011062622,0.0
41.86067962646485,44.2476921081543
0.0,0.0
0.0,0.0
25.74269676208496,28.32247734069824
65.92828369140625,77.33942413330078
0.0,0.0
0.3095083832740783,0.0
0.0017621666193008,0.0
0.0,0.0
0.0,0.0
0.0,0.0
0.0,0.0
0.189996138215065,0.0
22.39226722717285,18.93656349182129
0.1104365885257721,0.0
0.0,0.0
0.0,0.0
0.0,0.0
0.0668630301952362,0.0
0.0,0.0
64.03500366210938,67.74372100830078
0.0,0.0
0.0,0.0
0.1881300210952758,0.0
58.76076889038086,37.73677444458008
0.0367356985807418,0.0
0.0835370868444442,0.0
0.0705908238887786,0.0
0.0,0.0
0.0,0.0
0.0327879637479782,0.0
0.0054979622364044,0.0
0.0,0.0
0.1251078099012375,0.0
38.59973907470703,39.21737289428711
0.0,0.0
0.2273924350738525,0.0
0.1128662079572677,0.0
0.0,0.0
0.0,0.0
0.0436015576124191,0.0
0.1721543222665786,0.0
0.0741896033287048,0.0
0.0,0.0
0.0379202663898468,0.0
0.0731799751520156,0.0
0.3560339212417602,0.0
21.9068546295166,17.996994018554688
0.0,0.0
0.0,0.0
0.3654305338859558,0.0
0.0,0.0
0.0,0.0
0.0,0.0
0.0,0.7373596429824829
45.016727447509766,39.59391784667969
0.0,0.0
0.0,0.0
28.174537658691406,29.67490577697754
0.1109128966927528,0.0
0.0,0.0
0.0,0.0
14.67523956298828,14.620275497436523
43.15973663330078,38.09000778198242
0.0,0.0
0.0,0.0
79.16693115234375,84.09529876708984
0.0526780635118484,0.0
0.0,0.0
34.9880485534668,50.11346054077149
0.0,0.0
0.0189347565174102,0.0
0.0,0.0
0.0,0.0
0.0156417191028594,0.0
0.0042452216148376,0.0
0.6038125157356262,0.0
29.85517883300781,29.79058074951172
0.1474545001983642,0.0
0.1280378401279449,0.0
0.0,0.0
0.0,0.0
86.80741119384766,88.10662078857422
61.39632415771485,58.81644821166992
0.0,0.0
0.0495309084653854,0.0
0.2630283832550049,0.0
23.734447479248047,18.40937805175781
0.0288637280464172,0.0
0.1639196127653122,0.0
0.1415633410215377,0.0
0.1325051337480545,0.0
32.412879943847656,30.40150451660156
0.0,0.0
2.3188226222991943,0.8589668273925781
0.0,0.0
0.0226668417453765,0.0
0.0,0.0
1.0730311870574951,0.0
0.0814575999975204,0.0
26.4237117767334,22.9124698638916
0.0,0.0
0.0794966071844101,0.0
0.0,0.0
0.0,0.0
0.0,0.0
0.0,0.0
0.2114519923925399,0.0
0.0,0.0
0.0,0.0
0.0,0.0
0.0662404894828796,0.0
0.0515694171190261,0.0
0.6366918087005615,0.0
0.0,0.0
57.93791198730469,53.14684677124024
0.1708552092313766,0.0
0.1212299913167953,0.0
0.0,0.0
0.0,0.0
0.069710299372673,0.0
0.2925577163696289,0.0
27.025087356567383,25.56739616394043
0.0,0.0
0.1094180271029472,0.0
0.0,0.0
33.37381362915039,34.26626968383789
0.0,0.0
0.0,0.0
0.1042477339506149,0.0
0.0,0.0
0.1517748385667801,0.0
0.0,0.0
0.0,0.0
0.0,0.0
0.0,0.0
0.0,0.0
0.0,0.0
0.0068685859441757,0.0
0.0009022951126098,0.0
29.297008514404297,44.149932861328125
0.3605197072029114,0.0
0.0,0.0
18.649385452270508,16.987831115722656
0.0,0.0
0.125647485256195,0.0
0.1246067732572555,0.0
0.0,0.0
0.0,0.0
0.0,0.0
0.0,0.0
14.914390563964844,17.760860443115234
0.0684026777744293,0.0
24.873165130615234,27.3189754486084
0.0817171782255172,0.0
0.0430496484041214,0.0
0.1678780168294906,0.0
0.0611780881881713,0.0
0.0,0.0
0.0,0.0
0.0831167548894882,0.0
0.0,0.0
0.0698406547307968,0.0
31.46260643005371,29.22150611877441
0.2729135751724243,0.0
64.07618713378906,57.39975357055664
0.0,0.0
0.0,0.0
72.03638458251953,82.08867645263672
0.0,0.0
43.12007522583008,40.97100830078125
0.2201768904924392,0.0
0.0019098967313766,0.0
0.0,0.0
0.0,0.0
0.0041781216859817,0.0
40.100677490234375,45.04889297485352
0.1587596386671066,0.0
0.0,0.0
0.0,0.0
0.5147777795791626,0.0
31.376365661621094,27.08330726623535
0.5066823363304138,0.0
0.0673473849892616,0.0
36.93285751342773,34.41202545166016
51.71998977661133,56.628509521484375
0.0,0.0
68.89657592773438,87.02997589111328
23.76209259033203,25.433528900146484
0.0,0.0
0.0,0.0
0.0,0.0
57.98945999145508,73.64144134521484
0.2667348384857178,0.0
43.73856735229492,32.0837516784668
34.64805221557617,30.434894561767575
62.02288818359375,58.023250579833984
0.0,0.0
0.0,0.0
0.0732548236846923,0.0
35.92649459838867,23.467931747436523
19.355052947998047,20.61136054992676
0.3199889659881592,0.0
28.680049896240234,25.88084983825684
23.86808204650879,20.50124740600586
0.0,0.0
0.0,0.0
54.98671722412109,50.97888946533203
0.0,0.0
35.82925033569336,27.428482055664062
0.0,0.0
83.15142059326172,87.23578643798828
46.05458068847656,46.91439056396485
0.3986567854881286,0.0
0.2043055295944214,0.0
0.0724537223577499,0.0
0.3345435857772827,0.0
0.0555045902729034,0.0
41.96553039550781,43.10650253295898
14.366389274597168,15.587539672851562
0.0,0.0
0.2836663126945495,0.0
58.614723205566406,83.57563018798828
0.1430377066135406,0.0
0.066128522157669,0.0
0.0,0.0
0.0671900510787963,0.0
0.0,0.0
0.0939657837152481,0.0
0.9593278765678406,0.0
0.1330988705158233,0.0
0.0,0.0
0.0,0.0
27.98540687561035,27.702489852905277
0.025483027100563,0.0
0.0,0.0
0.0,0.0
0.0,0.0
0.1545470505952835,0.0
0.1252195239067077,0.0
0.0,0.0
0.0,0.0
0.0,0.0
62.582275390625,65.461181640625
0.0,0.0
0.0,0.0
0.0,0.0
0.0053947567939758,0.0
0.0,0.0
0.1083481907844543,0.0
0.0,0.0
75.2005615234375,80.96796417236328
0.0,0.0
0.0905651748180389,0.0
25.59819793701172,21.12719345092773
0.0,0.0
0.4916326999664306,0.0
0.0386756211519241,0.0
0.031519591808319,0.0
0.0463049858808517,1.1851710081100464
36.41046524047852,37.24298095703125
0.0,0.0
0.1199017018079757,0.0
0.0,0.0
0.0957753509283065,0.0
0.724118709564209,0.0
0.0,0.0
0.1077464073896408,0.0
0.1019643098115921,0.0
0.1102009862661361,0.0
0.0,0.0
0.0,0.0
0.0,0.0
0.0,0.0
0.0647831410169601,0.0
0.0,0.0
0.1988216191530227,0.0
0.0,0.0
0.0,0.0
0.0,0.964877724647522
0.212702140212059,0.0
0.2988536953926086,0.0
0.0,0.0
34.52457427978516,25.88120651245117
45.47068786621094,45.94586563110352
0.0,0.0
0.0,0.0
0.0,0.0
0.0,0.0
22.107023239135746,20.0330810546875
0.0161780565977096,0.0
0.0,0.0
0.2155892699956894,0.0
0.0,0.0
78.09327697753906,88.90811157226562
0.0,0.0
0.0,0.0
0.0617133527994155,0.0
0.0075592249631881,0.0
0.0,0.0
34.42170333862305,25.446556091308597
32.61069107055664,43.57946395874024
0.0,0.0
0.0246500223875045,0.0
0.0861846432089805,0.0
0.0,0.0
0.1357562094926834,0.0
0.4821050763130188,0.0
0.0777548849582672,0.0
0.0,0.0
0.0,0.0
0.0815449506044387,0.0
32.40651321411133,26.65863800048828
0.1152881830930709,0.0
28.874971389770508,20.489421844482425
0.1921442151069641,0.0
55.94549179077149,59.08938980102539
0.0,0.0
61.874305725097656,58.49287033081055
35.83835220336914,35.390228271484375
0.3466490507125854,0.0
0.0,0.0
0.0,0.0
0.0789847522974014,0.0
0.0,0.0
36.86254501342773,54.06744384765625
26.93460273742676,19.12599754333496
0.0,0.0
41.609130859375,23.96782493591309
0.0287458002567291,0.0
0.2437326312065124,0.0
0.0,0.0
0.0438362658023834,0.0
0.0,0.0
0.0026159137487411,0.0
0.0,0.0
0.0021530836820602,0.0
0.0,0.0
0.2209607511758804,0.0
0.0,0.0
0.0173317044973373,0.3588184416294098
0.0,0.0
0.0,0.0
0.0308095961809158,0.0
0.0,0.0
0.0,0.0
0.0,0.0
0.1371137946844101,0.0
0.2892927527427673,0.0
0.1032742112874984,0.0
0.5265205502510071,0.0
0.0,0.0
0.0,0.0
0.1905451714992523,0.0
0.0,0.0
0.2935352921485901,0.0
0.0277218371629714,0.0
0.0,0.0
0.0,0.0
21.594629287719727,19.094181060791016
0.1084134429693222,0.0
23.135229110717773,22.493207931518555
0.0,0.0
0.0,0.0
49.33251953125,50.0038948059082
0.0742965787649154,0.0
0.0,0.0
49.42571640014648,46.567413330078125
0.5029301643371582,0.0
0.2284787595272064,0.0
0.0410216003656387,0.0
0.150391086935997,0.0
33.197261810302734,35.52790832519531
0.0,0.0
0.3131139576435089,0.0
0.0,0.0
0.0798184350132942,0.0
0.0,0.0
0.1418234854936599,0.0
0.1760028749704361,0.0
0.0,0.0
0.2920520305633545,0.0
0.4517666697502136,0.0
0.0,0.0
76.68360900878906,86.69820404052734
43.80252456665039,40.37456512451172
32.643096923828125,25.181232452392575
0.0,0.0
0.0399927794933319,0.0
0.0979284197092056,0.0
0.0,0.0
0.0566252917051315,0.0
0.1437767148017883,0.0
0.0851446017622947,0.0
0.0,0.0
34.859375,25.79361915588379
0.0,0.0
24.387039184570312,20.56219482421875
0.0,0.0
0.0,0.0
47.6288948059082,59.46086502075195
0.0,0.0
0.0,0.0
0.0,0.0
0.0864086598157882,0.0
28.32115936279297,28.523094177246094
0.0,0.0
0.0,0.0
35.91061782836914,28.35395050048828
0.0,0.0
0.0,0.0
0.0,0.0
0.0806420892477035,0.0
0.0,0.0
0.0029172748327255,0.0
35.47951126098633,39.269325256347656
0.0477088093757629,0.0
0.0,0.0
0.3991459012031555,0.0
0.0,0.0
0.0307084172964096,1.154741644859314
0.0,0.0
0.0780722796916961,0.0
0.0239482969045639,0.0
32.73313903808594,38.48350143432617
0.1973740607500076,0.0
36.19826126098633,37.88810348510742
0.146708533167839,0.0
47.130489349365234,46.05918502807617
0.0,0.0
0.0365534275770187,0.0
0.0,0.0
0.0,0.0
0.0528748780488967,0.0
0.0420379787683486,0.0
0.0,0.0
0.0,0.0
0.1135458201169967,0.0
0.0,0.0
56.9207763671875,61.74650573730469
0.0770211219787597,0.0
42.34511947631836,53.15138244628906
0.0,0.0
0.1508583277463913,0.0
47.72648620605469,67.35970306396484
0.0,0.0
0.1338635385036468,0.0
0.0804572254419326,0.0
0.0,0.0
0.0,0.0
0.0,0.0
0.0,0.0
0.1466232985258102,0.0
0.0,0.0
0.0,0.0
68.12018585205078,69.94116973876953
0.1881064623594284,0.0
0.0998129472136497,0.0
0.1675068587064743,0.0
0.0,0.932165503501892
25.90976905822754,27.980487823486328
0.0,0.0
0.0,0.0
19.936580657958984,24.92241477966309
0.0889391601085662,0.0
0.1279454082250595,0.0
0.0,0.0
0.2545090913772583,0.0
0.1372711211442947,0.0
0.2466523200273513,0.0
0.0,0.0
0.0240249037742614,0.0
0.0,0.0271547138690948
0.0,0.0
0.0,0.0
0.0,0.0
0.0,0.0
48.60861587524414,51.59346008300781
0.0,0.0
0.1419458240270614,0.0
0.0,0.0
0.4207375049591064,0.0
0.0,0.0
0.0,0.0
0.0,0.0
39.58553695678711,32.24419403076172
0.0,0.0
0.0,0.0
33.91666412353516,31.456748962402344
0.2564142346382141,0.0
0.0507633835077285,0.0
0.0,0.0
0.1431313008069992,0.0
0.4525547623634338,0.0
0.0,0.0
0.0,0.0
0.0,0.0
32.744903564453125,29.06151580810547
0.0,0.0
0.0,0.0
0.3466307520866394,0.0
0.0,0.0
0.0,0.0
0.0,0.0
0.0,0.0
0.2085593491792678,0.0
0.0662861168384552,0.0
0.0,0.0
0.2911081314086914,0.0
0.0,0.0
0.1036207377910614,0.0
39.01753616333008,29.96663475036621
0.0,0.0
64.31231689453125,76.6943130493164
0.0063992291688919,0.0
0.0,0.0
0.0,0.0
0.0,0.0
0.0,0.0
0.0,0.0
0.0341425091028213,0.0
0.0,0.0
0.0,0.0
0.0,0.0
0.1322394907474517,0.0
0.0,0.0
0.0594240874052047,0.0
26.38360595703125,26.323299407958984
0.0792459174990654,0.0
0.15094093978405,0.0
0.5476369857788086,0.0
0.0,0.0
0.0,0.0
0.0724002867937088,0.0
84.2241439819336,99.9606704711914
25.960084915161133,26.833986282348636
0.1549777239561081,0.0
0.0,0.0
0.0,0.0
0.0093572586774826,0.0
0.0,0.0
0.0210717171430587,0.0
31.637916564941406,26.835582733154297
0.3129072189331054,0.0
0.1298817247152328,0.0
0.0958369523286819,0.0
0.0,0.0
0.0992046594619751,0.0
0.1328952461481094,0.0
0.4904651045799255,0.0
24.081600189208984,33.52799224853516
0.0,0.0
0.1247858852148056,0.0
0.0469361692667007,0.0
0.3134330511093139,0.0
0.0,0.0
0.125895008444786,0.0
0.2557225823402405,0.0
1.4635076522827148,0.0
0.103419005870819,0.0
0.1552543342113495,0.0
1.2599314451217651,0.0
45.3132438659668,41.745025634765625
0.0,0.0
0.0278111547231674,0.0
0.0,0.0
23.58994483947754,17.65068817138672
0.0,0.0
28.67932510375977,45.275367736816406
0.0924272686243057,1.4308751821517944
0.0,0.0
0.1548619568347931,0.0
0.0,0.0
33.933841705322266,24.677854537963867
0.0,0.0
0.0,0.0
16.3109130859375,16.339834213256836
0.1587333679199218,0.0
0.1387571394443512,0.0
0.0,0.0
0.0,0.0
26.179630279541016,24.22366142272949
0.0232772231101989,0.0
0.0438223332166671,0.0
0.2661143541336059,0.0
0.1032273322343826,0.0
39.3686408996582,42.22267532348633
0.0,0.0
0.0994277819991111,0.0
0.2292392402887344,0.0
0.1625135540962219,0.0
0.1658672094345092,0.0
39.65230178833008,30.211671829223636
0.0001865029335021,0.0
0.6855704188346863,0.0
0.1232242435216903,0.0
0.0,0.0
26.78553771972656,23.95250129699707
0.0,0.0
0.0975648611783981,0.0
0.1265357881784439,0.0
0.0,0.0
0.1316230744123459,0.0
0.4302965998649597,0.0
59.202110290527344,78.96026611328125
0.5516383051872253,0.0
0.0717868059873581,0.0
0.1492893248796463,0.0
0.0,0.0
0.0198716670274734,0.0
0.0,0.0
0.0,0.0
0.0,0.0
0.0,0.0
0.1456046551465988,0.0
0.2096779346466064,0.0
0.1602175682783126,0.0
0.0,0.0
39.18412780761719,30.421226501464844
0.0,0.0
0.0,0.0
0.4186109900474548,0.0
24.612234115600582,18.20220375061035
0.0,0.0
31.409746170043945,26.80237197875977
0.0,0.0
0.0,0.0
0.0114538967609405,0.0
24.332252502441406,18.108402252197266
0.0,0.0
0.0,0.0
45.93610382080078,41.169883728027344
33.398963928222656,24.04767799377441
0.0,0.0
2.7793257236480717,0.0
0.0758209303021431,0.0
61.59214782714844,62.667293548583984
0.0,0.0
0.1915385276079177,0.0
0.3156031966209411,0.0
0.0,0.0
0.0,0.0
0.0,0.0
0.0239410549402236,0.0
0.0686431974172592,0.0
28.239002227783203,23.47170639038086
54.61310577392578,67.91193389892578
0.0,0.0
0.0,0.0
0.0,0.0
0.0,0.0589542090892791
0.1416968405246734,0.0
0.3202560842037201,0.0
0.0681360214948654,0.0
0.0,0.7758142948150635
0.0,0.0
0.0,0.0
0.0,0.0
59.017860412597656,61.93548583984375
0.1249150410294532,0.0
0.0,0.0
0.0,0.0
53.620567321777344,27.244468688964844
0.0249841064214706,0.0
0.0,0.0
0.0168074816465377,0.0
0.0570666640996933,0.0
0.0229410678148269,0.0
0.2326969653367996,0.0
0.0122432261705398,0.0
0.0279384553432464,0.0
0.1792432516813278,0.0
0.0,0.0
0.3372895121574402,0.0
0.0,0.0
51.30067443847656,53.30596160888672
0.0,0.0
0.0,0.0
0.1284074336290359,0.0
0.3232972621917724,0.0
0.0,0.0
0.0197442471981048,0.0
0.299795389175415,0.0
0.0,0.0
0.0944311469793319,0.0
0.0,0.0
0.1621448844671249,0.0
24.002620697021484,21.612213134765625
0.3978012204170227,0.0
0.0,0.0
0.0092788189649581,0.0
0.0,0.0
34.67246627807617,27.94622611999512
0.053357720375061,0.0
0.0,0.0
0.0837196707725524,0.0
0.0,0.0
0.0694762170314788,0.0
0.0,0.0
0.0,0.0
0.0,0.0
0.0,0.0
0.071369856595993,0.0
42.16693115234375,39.95668029785156
0.0,0.0
0.0071978420019149,0.0
0.0113429278135299,0.01448355615139
56.30850982666016,72.43438720703125
0.0,0.0
0.1041195839643478,0.0
0.0,0.0
0.251483291387558,0.0
0.0,0.4327180385589599
0.0,0.0
0.0,0.0
0.0,0.0
19.28522491455078,24.42500114440918
25.2613525390625,35.61431121826172
0.148517444729805,0.0
0.1159072071313858,0.0
0.0,0.0
0.0,0.0
0.208469733595848,0.0
0.0,0.0
0.0692888349294662,0.0
0.0,0.0
0.0,0.0
0.0,0.0
0.1544959396123886,0.0
0.1977904587984085,0.0
50.578521728515625,69.91793823242188
0.746685802936554,0.0
0.0,0.0
0.0,0.0
0.0435341447591781,0.0423421114683151
0.0,0.0
0.0609076172113418,0.0
0.0,0.0
0.0,0.0
0.1219252496957779,0.0
29.194189071655277,34.99822235107422
0.3057510256767273,0.0
0.0,0.0
0.0,0.0
0.0,0.0
33.87508010864258,26.429780960083008
0.3043854832649231,0.0
0.0992510169744491,0.0
2.087503671646118,0.0
33.01091384887695,24.902963638305664
0.281502366065979,0.0
0.1302241832017898,0.5899549126625061
0.0,0.0
0.1416981369256973,0.0
37.83713150024414,32.49549102783203
0.1332593411207199,0.5240604877471924
0.0718409121036529,0.0
0.0654371082782745,0.0
42.68934631347656,55.15700149536133
0.0962457805871963,0.0
0.0,0.0
20.389450073242188,17.644792556762695
0.0496912002563476,0.0
0.3990446329116821,0.0
0.2005815356969833,0.0
0.0916624367237091,0.0
0.2160640805959701,0.0
0.0,0.0
0.0,0.0
0.1299625784158706,0.0
0.0,0.0
0.2198751866817474,0.0
0.0,0.0
0.197642371058464,0.0
0.0,1.1022257804870603
29.11820411682129,32.425262451171875
0.0,0.0
0.0443902462720871,0.0
0.0,0.0
0.1301501542329788,0.0
0.022243782877922,0.0
0.0,0.0
0.1580640822649002,0.0
0.0,0.0
0.0,0.0
0.0,0.0
0.3727040290832519,0.0
0.0,0.0
0.0,0.0
35.95499801635742,34.38422393798828
0.0,0.0
0.0089635550975799,0.0
0.0942534357309341,0.0
0.0,0.0
0.0623694509267807,0.0
0.0,0.0
0.08920419216156,0.0
0.0500007271766662,0.0
34.5721321105957,43.63482284545898
0.0,0.0
0.0,0.0
0.2263778001070022,0.0
26.670522689819336,23.689489364624023
0.0,0.0
0.1514758914709091,0.0
0.0,0.0
0.0103959888219833,0.0
0.0,0.0
0.0,0.0
55.15679931640625,61.08882141113281
0.1266267448663711,0.0
0.0872424766421318,0.0
0.0462880134582519,0.0
0.0934446603059768,0.0
0.0,0.0
0.0,0.0
8.641183376312256e-05,0.0
3.247105598449707,0.3486464023590088
0.0307375192642211,0.0
0.0988432615995407,0.0
0.06052266061306,0.0
0.0,0.0
0.4231970310211181,0.0
0.1321325898170471,0.0
0.0,0.0
0.0,0.0
0.0,0.0
46.50457000732422,45.51821517944336
26.86158561706543,18.39145851135254
0.0,0.0
21.51704788208008,17.475807189941406
0.0,0.0
0.0948297828435897,0.0
0.0,0.0
0.0,0.0
31.888166427612305,17.8843994140625
0.0,0.0
0.0409303307533264,0.0
0.1622959077358245,0.0
0.008906066417694,0.0
0.2442476153373718,0.0
1.8279041051864624,0.0
70.5437240600586,74.61312103271484
30.518604278564453,31.345911026000977
0.1657884567975998,0.0
0.0,0.0
0.1411108523607254,0.0
40.80262756347656,53.53707504272461
0.195077583193779,0.0
0.0135669559240341,0.0
0.0,0.0
0.0,0.0
0.0,0.0
0.0,0.0
0.0,0.0
0.1802426278591156,0.0
0.1097503453493118,0.0
0.0,0.0
0.0376130193471908,0.0
0.0,0.0
0.0,0.0
0.0,0.0
0.0624878257513046,0.0
0.3484932780265808,0.0
0.127583622932434,0.0
0.1203143447637558,0.0
0.1634174436330795,0.0
0.0,0.0
0.0905598178505897,0.0
0.0781918168067932,0.0
0.0,0.0
0.2644307613372803,0.0
44.13777542114258,47.9222297668457
0.0190790146589279,0.0
2.5004804134368896,0.0
0.0,0.0
0.0108329057693481,0.0
0.0,0.0
0.0,0.0
46.70626449584961,46.97402572631836
0.0,0.0
0.0,0.0
0.0,0.0
0.0,0.0
0.0,0.0
0.0317824333906173,0.0
0.0,0.0
0.0746911913156509,0.0
0.0,0.0
0.0417492985725402,0.0
0.0112635046243667,0.0
24.234092712402344,27.206268310546875
0.0,0.0
0.0,0.0
0.0,0.0
43.1140251159668,45.112884521484375
0.0,0.0
0.0411856919527053,0.0
0.0,0.0
0.0,0.0
0.0,0.0
0.0,0.0
0.0,0.0
0.0,0.0
0.0202806144952774,0.0
0.0,0.0
37.95854949951172,23.88730812072754
0.1281908601522445,0.0
0.029592677950859,0.0
37.56040191650391,37.81728744506836
0.0085404068231582,0.0
0.0991338640451431,0.0
23.877103805541992,18.42145538330078
29.15308380126953,28.794227600097656
57.09669494628906,68.1617660522461
0.0,0.0
0.0497766584157943,0.0
0.0,0.0
0.0895438268780708,0.0
39.82447052001953,22.420351028442383
0.1678915321826934,0.0
0.0,0.0
0.042755976319313,0.0
0.0,0.0
0.0,0.0
0.2952185869216919,0.0
0.0,0.0
0.1062009781599044,0.0
0.0416521579027175,0.0
0.0028878599405288,0.0
0.0,0.0
0.0,0.0
0.0,0.0
0.0435516685247421,0.0
0.0230613648891448,0.0
0.0679066851735115,0.0
0.0,0.0
0.0,0.0
0.0,0.0
0.0,0.0
0.173331543803215,0.0
0.0,0.0
0.0252978056669235,0.0
0.0,0.0
56.25592422485352,50.08442306518555
0.0241145193576812,0.0
0.0,0.0
0.0575578510761261,0.0
0.0,0.0
0.0408085137605667,0.0
0.2209346145391464,0.0
56.71300506591797,59.84635543823242
0.0,0.0
0.0,0.0
0.1211916208267211,0.0
0.0356205403804779,0.0
0.0,0.0
0.0295017212629318,0.0
0.5019752979278564,0.0
0.0619502514600753,0.0
0.0,0.0
0.0811402946710586,0.0
15.82751750946045,15.19131851196289
0.5319263935089111,0.0
31.706344604492188,37.07211685180664
0.0193109810352325,0.0
0.0,0.0
0.4305640459060669,0.0
0.0,0.0
0.1527033448219299,0.0
0.0,0.0
0.0,0.0
0.5428046584129333,0.0
0.0334357768297195,0.0
0.1325778514146804,0.0
0.0160157531499862,0.0
0.3147094845771789,0.0
22.591663360595703,21.611223220825195
0.2318822294473648,0.0
42.05560302734375,41.539852142333984
0.0,0.0
0.0,0.0
0.0,0.0
0.0,0.0
0.0,0.0
0.0,0.0
0.0,0.0
0.1087846308946609,0.0
0.0,0.0
0.0,0.0
0.3125085830688476,0.0
0.0986999124288559,0.0
0.0,0.0
0.0,0.0
40.59334564208984,31.20125770568848
0.0,0.0
26.727806091308597,15.663138389587402
0.1033325046300888,0.0
0.0,0.0
38.90164566040039,42.500858306884766
0.0,0.0
0.0142329782247543,0.0
0.0,0.0
0.0,0.0
0.3548359870910644,0.0
0.0,0.0
0.0,0.0
0.1780911982059478,0.0
23.375871658325195,18.67654228210449
0.0,0.0
0.0,0.0
0.0,0.0
0.007271870970726,0.0
0.0,0.0
0.0524197816848754,0.0
0.1417997926473617,0.0
0.050019696354866,0.0
0.0,0.0
0.0508741438388824,0.0
0.0,0.0
0.022964060306549,0.0
0.0,0.0
0.0,0.0
0.0050569176673889,0.0
0.1100829690694809,0.0
48.68933868408203,51.66421508789063
0.0,0.0
0.0,0.0
0.0,0.0
0.0,0.0
0.0,0.0
0.0,0.0
63.2813835144043,76.47184753417969
55.48799133300781,58.12245559692383
41.55177307128906,40.854591369628906
37.69648742675781,36.34999465942383
44.37605285644531,44.42631149291992
0.0,0.0
0.1439171731472015,0.0
0.0,0.0
0.4647513628005981,0.0
0.0,0.0
0.0,0.0
0.1368850618600845,0.0
0.086746796965599,0.0
0.0306316018104553,0.0
0.0,0.0
34.11227035522461,34.34014129638672
0.3260413408279419,0.0
0.0,0.0
0.0239449888467788,0.0
0.0,0.0
0.1958951503038406,0.0
0.3297002911567688,0.0
0.1327817887067794,0.0
32.89529037475586,35.10745620727539
0.0,0.0
0.0371907502412796,0.0
0.4730955362319946,0.0
24.408838272094727,23.01233291625977
0.0,0.0
0.0751475989818573,0.0
0.0,0.0
0.0416607409715652,0.0
32.176422119140625,31.252784729003903
0.0,0.0
23.658153533935547,26.20845031738281
0.0,0.0
0.0559659600257873,0.0
0.0721538364887237,0.0
0.0,0.0
0.0,0.0
0.045090302824974,0.0
0.0,0.0
0.0,0.0
0.0,0.0
0.00343719124794,1.0230079889297483
0.0,0.0
0.2462791353464126,0.0
48.217750549316406,65.88893127441406
0.0603394955396652,0.0
0.0,0.0
0.0,0.0
0.0,0.0
0.0,0.0
0.1208357363939285,0.0
0.0,0.0
48.35685729980469,57.132720947265625
50.80536651611328,53.63999176025391
0.0,0.0
0.0633442401885986,0.0
0.0,0.0
0.3199862837791443,0.0
0.0,0.0
0.0,0.2093705683946609
0.1399839371442794,0.0
49.42454147338867,34.12398910522461
0.0,0.0
24.71788215637207,28.74067497253418
0.0,0.0
62.74610137939453,78.29408264160156
0.120099738240242,0.0
0.0,0.0
0.0615623593330383,0.8118625283241272
0.297288715839386,0.0
0.3139392137527466,0.0
0.0,0.0
0.0,0.0
0.3788810968399048,0.0
0.0,0.0
0.0,0.0
0.0,0.0
0.0,0.0180954188108444
0.100149318575859,0.0
0.014027401804924,0.0
0.0320678502321243,0.0
0.2001682966947555,0.0
0.3935731053352356,0.0
0.0362826436758041,0.0
0.1701513677835464,0.0
0.0,0.0
0.0,0.0
0.0,0.0
0.0,0.0
0.0,0.0
0.208100751042366,0.0
0.119971215724945,0.0
0.0973086208105087,0.0
0.0852656736969947,0.0
0.0444117039442062,0.0
0.0,0.0
20.687156677246094,19.36362648010254
0.0,0.0
0.2654317021369934,0.0
0.0,0.0
0.0,0.0
0.0257139652967453,0.0
0.0,0.0
49.12985229492188,53.86688232421875
0.0,0.8028886318206787
0.046334758400917,0.0
0.0768527686595916,0.0
0.0,0.0
41.38610076904297,44.647403717041016
0.0644435584545135,0.0
0.0,0.0
30.150957107543945,32.29967498779297
27.693574905395508,28.178342819213867
0.0,0.0
0.0,0.0
0.0,0.0
0.1113055795431137,0.0
50.5148811340332,58.375633239746094
0.0,0.0
67.60746002197266,79.7781982421875
0.0541463047266006,0.0
0.0338653475046157,0.0
0.0,0.0
0.351767897605896,0.0
0.1444772481918335,0.0
0.0,0.0
0.3789803981781006,0.0
36.87659454345703,34.1331787109375
0.1196550130844116,0.0
0.1453336030244827,0.0
0.0,0.0
0.0767942816019058,0.0
0.0,0.0
33.81514358520508,28.010498046875
41.90947723388672,48.64757537841797
0.0,0.0
0.1191028505563736,0.0
0.3688533902168274,0.0
23.04140281677246,17.20855712890625
0.0,0.0
0.1398317068815231,0.0
0.0,0.0
0.0491469949483871,0.0
0.0550638139247894,0.0
0.0543007403612136,0.0
0.2103853672742843,0.0
0.248497188091278,0.0
0.0,0.0
0.0,0.0
0.2341392189264297,0.0
0.0,0.0
0.0,0.0
21.224084854125977,18.21273803710937
55.27602005004883,70.81708526611328
0.0,0.0
0.0,0.0
36.186790466308594,28.570995330810547
0.0,0.0
0.0,0.0
0.1231556981801986,0.0
0.116336390376091,0.0
0.0,0.0
0.0,0.0
0.1298336535692215,0.0
0.0,0.0
0.0,0.0
39.24679946899414,39.66139221191406
0.0839150920510292,0.0
0.009501501917839,1.3985735177993774
0.0,0.0
0.0,0.0
0.3621610999107361,0.0
0.0,0.0
0.0,0.0
51.93235778808594,41.41983795166016
0.0549502223730087,0.0
0.0,0.0
27.64126205444336,22.674076080322266
0.0,0.0
0.0566059052944183,0.0
0.0,0.0
0.1850361973047256,0.0
0.0,0.0
0.0,0.0
0.0,0.0
0.0,0.0
0.0,0.0
0.0,0.0
2.0106332302093506,0.0
0.0668747574090957,0.0
23.54958915710449,20.421342849731445
0.3723040819168091,0.0
0.0,0.0
0.0,0.0
0.0,0.0
0.0,0.0
0.0,0.0
0.2201350927352905,0.0
0.0,0.0
32.160587310791016,35.048030853271484
0.0,0.0
0.0389363020658493,0.0
0.1848872005939483,0.0
0.0,0.0
0.0,0.0
0.0,0.0
0.0,0.0
0.0,0.0
0.0,0.0
35.578365325927734,33.50570297241211
0.2475752085447311,0.0
0.0,0.0
0.0,0.0
56.30590438842773,68.80610656738281
22.33804702758789,27.4542179107666
0.0,0.0
0.0,0.0
0.0,0.0
0.0,0.0
77.5544662475586,89.4316635131836
0.0306296497583389,0.0
0.0,0.0
31.22256851196289,36.995025634765625
0.0,0.0
38.41032409667969,43.75022888183594
0.1692801564931869,0.0
0.0,0.0
0.0633589327335357,0.0
0.0,0.0
0.0216467231512069,0.0
0.0,0.0
0.0530698150396347,0.0
0.0,0.0
0.2195934206247329,0.0
0.0009717047214508,0.0
0.0,0.0
0.0,0.0
0.0,0.0
26.323814392089844,23.33360290527344
16.94015884399414,18.033227920532227
0.0,0.0
31.68717765808105,31.519317626953125
59.76271057128906,43.90877532958984
0.0,0.0
0.0,0.0
0.5955063700675964,0.0
0.0374228507280349,0.0
35.56450653076172,38.19633865356445
0.0,0.0
0.0,0.0
0.3502781391143799,0.0
0.0,0.0
0.0,0.0
47.9112434387207,42.53504180908203
0.0,0.0
0.3692607283592224,0.0
0.1829936206340789,0.0
0.5110461711883545,0.0
0.0,0.0
0.1585896462202072,0.0
0.2974214553833008,0.0
0.0,0.0
0.3270081877708435,0.0
0.0,0.0
0.0,0.0
0.0,0.0
0.0,0.0
0.2221122235059738,0.0
0.0,0.0
0.0294385254383087,0.0
0.0,0.0
35.171749114990234,27.45173454284668
0.0,0.0
0.0,0.0
0.4779180288314819,0.0
0.0,0.0
0.0,0.0
0.0,0.0
0.0,0.0
0.0,0.0
0.0430867373943328,0.0
52.385398864746094,56.00236129760742
0.0,0.0
0.1363935768604278,0.0
0.1244026720523834,0.0
0.0,0.0
0.0708389431238174,0.0
0.0,0.0
0.0,0.0
0.0212319195270538,0.0
0.1258447915315628,0.0
53.69416809082031,63.56325149536133
0.0,0.0
0.0,0.0
0.0053303986787796,0.0
0.0,0.0
0.1536150425672531,0.0
0.0,0.0
33.168453216552734,35.40538024902344
0.0,0.0
34.43511962890625,37.22860336303711
0.1297172456979751,0.0
0.0419874340295791,0.0
0.2103833109140396,0.0
0.0646496191620826,0.0
0.1289737671613693,0.0
0.0,0.0
31.4677677154541,29.74848937988281
0.016453132033348,0.0
0.0,0.0
0.1856452673673629,0.0
21.67590713500977,17.789051055908203
0.1060589700937271,0.0
0.0,0.0
0.1607646346092224,0.0
0.0,0.0
0.0604155212640762,0.0
0.0,0.0
0.0758186131715774,0.0
32.02310943603516,24.666688919067383
0.0,0.0
0.0,0.0
0.1373415291309356,0.0
0.0,0.0
0.1052629500627517,0.0
19.396135330200195,24.18134880065918
0.0280831903219223,0.0
0.1623595207929611,0.0
0.0,0.0
0.0,0.0
0.0,0.0
0.0,0.0
38.340518951416016,39.08443832397461
53.92694091796875,42.14892578125
0.1349612474441528,0.0
0.0,0.0
1.917147517204285,0.0
0.0,0.0
0.0,0.0
61.18494415283203,72.21126556396484
44.87226486206055,48.3449592590332
0.502464771270752,0.0
0.0,0.0
0.1553664803504943,0.0
0.0,0.0
0.1099815368652343,0.0
68.71723175048828,80.68963623046875
0.0495739728212356,0.0
0.0,0.0
0.0,0.0
0.1735933870077133,0.0
27.038833618164062,21.884353637695312
0.083217978477478,0.0
0.155220165848732,0.0
0.1381287574768066,0.0
33.81324005126953,21.17560577392578
0.0179672241210937,0.0
0.0,0.0
22.79325294494629,17.23801040649414
0.037038579583168,0.0
0.0,0.0
0.0,0.0
57.25752639770508,76.9659194946289
0.0,0.0
0.0042608827352523,0.0
0.0222250521183013,0.0
0.15037402510643,0.0
25.708026885986328,21.916183471679688
0.0,0.0
0.0,0.0
0.1476279646158218,0.0
0.056451603770256,0.0
38.81968307495117,49.99140548706055
0.0,0.0
0.0,0.0
0.0999853536486625,0.0
28.91961669921875,42.82683181762695
27.556751251220703,21.97867774963379
47.923377990722656,52.07029724121094
0.0,0.1198566854000091
0.0,0.0
0.1428633630275726,0.0
0.1017806380987167,0.0
0.0,0.0
0.1145760267972946,0.0
46.15348052978516,57.72529983520508
26.26091957092285,32.12388229370117
36.66294860839844,32.64258575439453
0.2684485912322998,0.0
0.0,0.0
0.0,0.0
0.0,0.0
0.2957164645195007,0.0
0.0,0.0
72.4500503540039,90.029296875
0.0,0.0
0.0,0.0
0.0,0.0
0.0175405889749526,0.0
0.1706272810697555,0.0
0.0,0.0
0.2383908331394195,0.0
29.06072807312012,30.943021774291992
0.0480314344167709,0.0
0.1080550700426101,0.0
0.0,0.0
0.060639664530754,0.0
37.65264892578125,32.33307266235352
0.0,0.0
52.70949935913086,41.766395568847656
0.3160566687583923,0.0
0.0,0.0
0.0,0.0
0.0,0.0
0.0,0.0
0.1961260288953781,0.0
0.6133471727371216,0.0
0.0,0.0
0.0,0.0
1.3025646209716797,0.0
0.0,0.0
0.0,0.0
0.1096556484699249,0.0
0.0,0.0
0.0151184648275375,0.0
24.142372131347656,21.285253524780277
0.0,0.0
0.0,0.0
20.63837432861328,17.201950073242188
43.10387802124024,39.84712600708008
0.0,0.0
0.0,0.0
0.0,0.0
0.0,0.0
41.69744110107422,38.42173767089844
0.0,0.0
46.64216232299805,47.23999786376953
0.0,1.007596492767334
0.0,0.0
0.0811681523919105,0.0
0.0,0.0
0.0,0.0
0.0,0.0
0.0835227221250534,0.0
0.1371447145938873,0.0
71.8971176147461,86.55123901367188
0.0,0.0
0.0,0.0
0.0,0.0
0.0945260971784591,0.0
0.0637030601501464,0.0
0.193180426955223,0.0
0.1153823360800743,0.0
0.5945886373519897,0.0
0.0,0.0
45.64168548583984,51.72843933105469
0.0,0.0
0.0057667940855026,0.0
42.68182373046875,44.634124755859375
0.0677789598703384,0.0
0.0,0.0
0.0,0.0
0.0,0.0
0.0,0.0
0.0,0.0
0.8108398914337158,0.0
0.0,0.0
0.1143351048231124,0.0
0.0,0.0
0.0,0.0
0.0162102729082107,0.3953415155410766
0.0,0.0
30.05009078979492,19.33350372314453
38.154258728027344,41.04104232788086
0.0,0.0
40.08056640625,45.44977951049805
0.0516998022794723,0.0
0.0851480960845947,0.0
0.2976003885269165,0.0
0.1237715184688568,0.0
0.019859567284584,0.0
0.0103201419115066,0.0
0.0,0.0
0.0,0.0
36.99713897705078,32.55257797241211
0.052233800292015,0.0
0.4498474597930908,0.0
0.0,0.0
0.8572048544883728,0.0
0.0569681823253631,0.0
0.0,0.0
0.0,0.0
0.0291590243577957,0.0
0.0,0.0
56.63127899169922,54.31480407714844
0.1684725731611251,0.0
0.1833595484495163,0.0
28.27036666870117,22.960865020751957
0.0,0.0
0.0,0.0
0.1290222108364105,0.0
0.0,0.0
0.0,0.0
60.62692642211914,43.50852966308594
0.0,0.0
1.8989824056625368,0.0
0.0,0.0
34.593563079833984,29.446866989135746
0.3907581567764282,0.0
34.704734802246094,39.37337493896485
0.4173454642295837,0.0
0.0766658186912536,0.0
20.569244384765625,18.10825729370117
32.195335388183594,25.187488555908203
0.0,0.0
0.0099497288465499,0.0
0.1620693355798721,0.0
0.0403594225645065,0.0
0.0740443617105484,0.0
0.2600880861282348,0.0
34.55937576293945,30.43601417541504
0.0,0.0
44.06901550292969,32.81581497192383
0.0421580225229263,0.0
0.0,0.0
0.0,0.0
44.82965850830078,42.1850471496582
0.0,0.0
0.0555957406759262,0.0
0.0735876113176345,0.0
0.0,0.0
38.4194564819336,42.28722381591797
0.0,0.0
0.0,0.0
0.0,0.0
0.0,0.0
0.0,0.0
0.0,0.0
31.28992080688477,38.19406509399414
0.0,0.0
0.0,0.0
0.0662273168563842,0.0
0.0,0.0
0.0,0.0
0.0,0.0
0.0,0.0
0.0555779486894607,0.0
0.1201097220182418,0.0
0.2630965709686279,0.0
0.0,0.0
0.0,0.0
32.61781692504883,29.137630462646484
0.0,0.1800103485584259
0.0,0.0
0.1087254732847213,0.0
0.0,0.0
0.0,0.0
0.0397481173276901,0.0
0.0,0.0
0.0,0.0
0.0,0.0
0.1573595553636551,0.0
0.197598323225975,0.0
0.0627843886613845,0.0
0.0,0.0
0.899591326713562,0.0
24.255577087402344,20.88788414001465
0.1745260655879974,0.0
0.0851759910583496,0.0
0.0942631214857101,0.0
0.0561927407979965,0.0
0.0,0.0
0.0147860348224639,0.0
0.0,0.0
0.0,0.0
0.1028283387422561,0.0
0.0,0.0
0.1869397312402725,0.0
0.0,0.0
0.0,0.3198421597480774
0.209260880947113,0.0
0.0,0.0
0.177261397242546,0.0
0.0,0.0
0.1942370533943176,0.0
0.0,0.7029714584350586
0.0060075223445892,0.0
0.0,0.0
0.0,0.0
0.0,0.0
0.0,0.0
0.0884405225515365,0.0
0.2145592272281646,0.0
0.0,0.0
38.11042022705078,25.661134719848636
0.1246022433042526,0.0
0.0,0.0
0.0,0.0
81.81285858154297,84.24732971191406
22.564842224121094,17.971172332763672
64.19754028320312,74.76433563232422
44.958797454833984,38.50835418701172
0.0,0.0
0.0455561727285385,0.0
0.0,0.0
48.51045227050781,46.93444442749024
0.139853149652481,0.0
0.2062977403402328,0.0
0.0,0.0
0.2292144894599914,0.0
0.0,0.0
36.49877548217773,26.5509033203125
37.43603515625,23.192012786865234
0.0,0.0
0.1678909957408905,0.0
0.0,0.3821129202842712
0.0,0.0
0.0,0.0
24.4514217376709,29.90884780883789
0.0,0.9458393454551696
0.2526005506515503,0.0
0.1557165831327438,0.0
0.0,0.0
0.0,0.0
0.0,0.0
0.0,0.0
0.1202400401234626,0.0
0.0,0.0
0.0,0.0
1.0131821632385254,0.0
0.0,0.0
0.0,0.0
0.0,0.0
0.0,0.0
32.065673828125,33.819766998291016
0.0,0.0
45.18342971801758,29.859601974487305
0.0,0.0
0.0,0.0
0.0,0.0
0.0834236741065979,0.0
0.0,0.0
0.0,0.0
0.0,0.0
0.0,0.0
0.0,0.0
0.2921195030212402,0.0
0.0,0.0
28.9929141998291,25.23880386352539
0.0,0.0
0.0929930955171585,0.0
0.0853140354156494,0.0
43.0102424621582,38.87910842895508
0.0914964526891708,0.0
0.0,0.0
0.0,0.0
0.0,0.0
38.830322265625,44.6177978515625
0.0,0.0
0.0,0.0
0.0,0.0
29.93678855895996,22.110767364501957
0.0,0.0
0.0,0.0
0.0,0.0
0.0,0.0
69.77183532714844,84.24187469482422
0.1480386406183242,0.0
22.064037322998047,20.26116752624512
0.0289620608091354,0.0
0.0,0.0
0.130337193608284,0.0
0.2779480218887329,1.1185317039489746
0.1798417419195175,0.0
0.0247239619493484,0.0
0.0,0.0
0.0237004309892654,0.459876000881195
0.0,0.0
0.0309216082096099,0.0
28.634408950805664,31.46546173095703
0.0,0.0
45.35037612915039,51.435359954833984
0.0,0.0
0.0,0.0
0.0,0.0
0.2038718611001968,0.0
0.0286138951778411,0.0
0.0314281731843948,0.0
0.2146127969026565,0.0
0.0194723308086395,0.0
43.861515045166016,46.08932876586914
35.28925323486328,32.08706283569336
0.0787292271852493,0.0
0.2994888424873352,0.0
24.965255737304688,26.025535583496094
0.1000282615423202,0.0
0.0,0.0
0.1797718554735183,0.0
39.197044372558594,35.73004913330078
0.0807368233799934,0.0
0.0,0.0
44.027587890625,45.46909332275391
0.0,0.0
0.0136009901762008,0.0
0.1360169500112533,0.0
0.0,0.0
26.369234085083008,39.86261367797852
39.85912704467773,38.11348342895508
0.1214891895651817,0.0
0.0,0.0
0.2369778603315353,0.0
0.0,0.0
0.0,0.0
0.0,0.0
0.0,0.0
0.0,0.0
0.0,0.0
0.4631487727165222,0.0
0.0895986706018447,0.0
0.1652515828609466,0.0
0.0,0.0
26.38424301147461,24.20112609863281
0.1718290895223617,0.0408696383237838
27.066408157348636,8.106305122375488
0.0,0.0
0.0,0.0
0.1290817409753799,0.0
0.0,0.0
75.0830307006836,76.89654541015625
0.2228108346462249,0.0
0.0,0.0
0.0,0.0
0.0503515154123306,0.0
37.05982971191406,38.51935195922852
0.0,0.0
0.131274476647377,0.0
0.0819549635052681,0.0
0.1365408152341842,0.0
0.1037176698446273,0.0
0.1631180197000503,0.0
0.3482031226158142,0.0
0.1491309553384781,0.0
0.1796240955591201,0.0
0.0,0.0
0.0,0.0
0.0,0.0
0.0,0.0
0.0,0.0
64.73914337158203,74.18264770507812
0.0,0.0
0.1059631332755088,0.0
19.478317260742188,18.65213203430176
0.0,0.0
0.0,0.0
0.7750201225280762,0.0
0.2334621697664261,0.0
0.0,0.0
0.4012234210968017,0.0
0.0,0.0
0.1634506583213806,0.0
0.0,0.0
0.1273251473903656,0.0
46.07715606689453,30.73879623413086
0.0,0.0
0.0,0.0
0.0879348665475845,0.0
0.0736591964960098,0.0
0.0,0.0
0.0,0.0
0.0635500103235244,0.0
0.0,0.0
0.0800132453441619,0.0
0.0,0.0
0.08134575933218,0.0
0.0,0.0
0.1824213862419128,0.0
0.0817998498678207,0.0
24.84886360168457,24.846609115600582
0.5969602465629578,0.0
0.0782461017370224,0.0
0.1995739787817001,0.0
0.0,0.0
0.0153205394744873,0.0
0.1493913978338241,0.0
0.0,0.0
0.0,0.0
0.0,0.0
0.107829675078392,0.0
0.0,0.0
0.1286485195159912,0.0
0.0,0.0
0.0,0.0
0.0753975212574005,0.0
0.0,0.0
0.0,0.0
0.0,0.0
30.45880126953125,24.748151779174805
0.0,0.0
0.360508382320404,0.0
0.0,0.0
0.0,0.0
0.0,0.0
0.0758871883153915,0.0
31.795549392700195,24.06095314025879
0.0,0.0
0.0,1.33187997341156
0.0,0.0
0.0,0.0
0.1461995393037796,0.0
0.1232220977544784,0.0
0.0049424618482589,0.0
0.0,0.0
47.34748840332031,42.156517028808594
0.0,0.8607571125030518
0.0,0.0
0.060725525021553,0.0
0.0288832634687423,0.0
59.062286376953125,58.89175415039063
57.6058235168457,61.840450286865234
0.0,0.0
36.06229019165039,26.078697204589844
0.0,0.0
0.0,0.0
0.4958391189575195,0.0
0.0435381084680557,0.0
0.0,0.0
0.0,0.0
0.111651673913002,0.0
0.0,0.0
0.1184126436710357,0.0
0.0,0.0
0.0687478631734848,0.0
0.0,0.0
0.2161323726177215,0.0
0.1717442125082016,0.0
45.55936050415039,46.37360763549805
0.0,0.0
0.099223718047142,0.0
0.2845224142074585,0.0
30.107593536376957,24.310291290283203
0.0,0.0
0.2292027175426483,0.0
54.65987014770508,74.95245361328125
0.0,0.0
0.0773905366659164,0.0
0.0,0.0
0.8619450330734253,0.0
49.9188232421875,54.05662155151367
24.89763641357422,28.854883193969727
0.1138013824820518,0.0
0.0,0.0
0.1411239951848983,0.0
0.0,0.0
20.70921516418457,18.986358642578125
0.0,0.0
0.0,0.0
0.0,0.0
0.0,0.0
0.0,0.0
0.0,0.0
0.0,0.0
0.0,0.0
0.0,0.0
0.0,0.0
0.0,0.0
0.0905904620885849,0.0
0.0,0.0
0.1011375561356544,0.0
0.0,0.0
0.3841580152511596,0.0
24.012475967407227,25.859432220458984
0.0,0.0
0.0341401547193527,0.0
0.1126005351543426,0.0
0.0,0.0
0.0,0.0
0.1404645293951034,0.0
0.0,0.0
0.0,0.0
0.2292568534612655,0.0
61.165374755859375,68.18377685546875
24.848207473754883,24.58604431152344
0.0659223943948745,0.0
0.0015881359577178,0.0
0.1184088289737701,0.0
0.0,0.0
0.0452765375375747,0.0
0.0401541292667388,0.0
0.0250737071037292,0.0
0.0,0.0
0.1822134405374527,0.0
0.0,0.0
0.0,0.0
0.021984115242958,0.0
0.0100485235452651,0.0
0.0,0.0
0.0644450038671493,0.0
0.0741447508335113,0.0
0.0,0.0
22.913185119628903,23.64193344116211
21.12503242492676,22.10496711730957
0.0,0.0
0.0,0.0
0.0398413091897964,0.0
0.2904113531112671,0.0
20.447214126586918,17.772197723388672
0.1838227212429046,0.0
0.0294049978256225,0.0
32.60613250732422,21.660070419311523
0.0,0.0
24.92036819458008,19.51055908203125
0.2281883209943771,0.0
0.1107010096311569,0.0
0.1548997461795807,0.0
0.0,0.0
0.0,0.0
0.0045619904994964,0.0
0.1175097674131393,0.0
0.0,0.0
60.27082824707031,74.17736053466797
0.0,0.0
0.0,0.0
0.0,0.0
0.0676350221037864,0.0
0.0,0.0
0.5180689692497253,0.0
0.1259344816207885,0.0
0.0,0.0
0.1103502660989761,0.0
0.0,0.0
0.0704432502388954,0.0
0.0272773057222366,0.0
0.0,0.0
0.0020146667957305,0.0
0.0,0.0
0.0,0.0
0.1809426844120025,0.0
0.0,0.0
0.3307344317436218,0.0
0.1196173280477523,0.0
0.0990519672632217,0.0
0.1449390798807144,0.0
39.146732330322266,36.15851593017578
0.1294843107461929,0.0
0.0,0.0
0.2095844745635986,0.0
0.0546726435422897,0.0
0.0,0.0
0.0,0.0
0.1445925682783126,0.0
20.14059257507324,17.061574935913086
24.64521789550781,25.49982261657715
0.0883286148309707,0.0
0.0725499019026756,0.0
0.0,0.0
33.55876159667969,33.866947174072266
0.0716320648789405,0.0
0.0612182170152664,0.0
0.2329614609479904,0.0
0.0,0.0
25.089527130126957,27.774677276611328
0.0448565930128097,0.0
0.0,0.0
0.0,0.0
0.2314516901969909,0.0
28.49113273620605,38.22158050537109
0.0,0.0
0.0,0.0
0.0750214010477066,0.0
0.0,0.0
0.0,0.0
0.0,0.0
46.9759521484375,42.38105392456055
25.94462203979492,18.546390533447266
86.4090347290039,84.00886535644531
0.0142003297805786,0.0
0.0901929587125778,0.0
0.2812293171882629,0.0
0.0,0.0
0.0,0.0
0.1199620217084884,0.0
0.0,0.0
0.0,0.0
0.0,0.0
0.1260391920804977,0.0
0.1821187287569046,0.0
0.1162579506635665,0.0
0.0637322217226028,0.0
0.4042014479637146,0.0
29.293352127075195,26.215171813964844
0.0,0.0
0.0,0.0
0.0376720577478408,0.0
0.0113235414028167,0.0
0.0,0.0
0.0,0.0
0.0,0.0
31.130624771118164,35.703651428222656
0.1993263810873031,0.0
0.093332715332508,0.0
0.4045337438583374,0.0
74.2170639038086,79.1952896118164
0.0,0.0
0.3662545084953308,0.0
0.0,0.0
0.0,0.0
0.0,0.0
25.42347526550293,22.329833984375
0.0,0.0
0.0023854225873947,0.0
0.1593019813299179,0.0
34.07868957519531,28.96260070800781
0.0,0.0
0.0,0.0
0.6283371448516846,0.0
0.0,0.0
0.0,0.0
0.1353295296430587,0.0
0.0,0.0
0.0827739089727401,0.0
38.02475357055664,28.186504364013672
0.0,0.0
0.1319262087345123,0.0
0.1263941079378128,0.0
0.0830572396516799,0.0
0.0,0.0
0.0,0.0
0.0,0.0
0.0,0.0
46.31345748901367,34.166465759277344
0.2182369530200958,0.0
0.0,0.0
0.0,0.0
0.1730107814073562,0.0
0.172392338514328,0.0
0.3419233858585357,0.0
0.343680590391159,0.0
0.0,0.0
0.0,0.0
0.0,0.0
0.0,0.0
47.11091995239258,52.68032455444336
0.0099741667509078,0.0
0.1334136724472046,0.0
0.0558945089578628,0.0
0.2428102940320968,0.0
0.2699085474014282,0.0
0.2639235854148865,0.0
0.0,0.0
0.0,0.0
0.0,0.0
0.0,0.0
24.052515029907227,18.582748413085938
0.0,0.0
2.081539869308472,0.0
0.0,0.0
0.1792368292808532,0.0
0.0875291228294372,0.0
0.1924879848957061,0.0
0.0,0.0
0.0,0.0
0.0,0.0
0.0740931034088134,0.0
0.0,0.0
0.0,0.0
0.0,0.0
0.0,0.0
0.0,0.0
0.0,0.0
0.0,0.0
0.0,0.0
0.1700666099786758,0.0
32.55448913574219,27.257369995117188
0.0,0.0
0.0,0.0
0.0486259907484054,0.0
0.0,0.0
0.0,0.0
0.0,0.0
0.0,0.0
0.0,0.0
0.0,0.0
0.0,0.0
0.0,0.0
0.0892342925071716,0.0
0.0022013038396835,0.0
0.0752803534269332,0.0
48.66392135620117,59.98783874511719
0.0206358730792999,0.0
0.0,0.0
23.88216590881348,22.44645500183105
44.56237411499024,42.48993682861328
30.31421661376953,28.281883239746094
0.0,0.0
0.0,0.0
73.99354553222656,74.68506622314453
65.52120971679688,77.45286560058594
0.059897631406784,0.0
0.0,0.0
0.0,0.0
0.0,0.0
0.3014697432518005,0.0
0.0280189514160156,0.0
0.2521688342094421,0.0
0.1765617430210113,0.0
50.44472503662109,62.24142074584961
0.0881093740463256,0.0
0.0,0.0
41.07078552246094,34.88697052001953
0.0,0.0
0.0,0.0
23.68274307250977,24.29560852050781
26.554771423339844,21.93135643005371
0.0,0.0
0.0,0.0
0.1461308896541595,0.0
0.0552189797163009,0.0
0.0,0.0
26.02288246154785,17.968673706054688
0.0,0.0
0.0,0.0
0.0,0.0
0.0,0.0
0.0,0.0
0.0534767359495162,0.0
0.0,0.0
0.0,0.0
0.0877782553434372,0.0
0.0,0.0
0.0546035170555114,0.0
0.0,0.0
0.623114287853241,0.0
0.0,0.0
0.193312406539917,0.0
0.0,0.0
24.969970703125,21.180315017700195
47.78604888916016,32.8857307434082
0.0401627272367477,0.0
0.0,0.0
0.2140587866306305,0.0
0.0,0.0
0.0,0.0
22.788122177124023,24.08734893798828
0.0,0.0
0.0205129981040954,0.0
0.0406407266855239,0.0
0.0989074259996414,0.0
0.0,0.0
0.201448455452919,0.0
0.0,0.0
0.0,0.0
0.0,0.0
0.0,0.0
0.0,0.0
0.0,0.0
0.0,0.0
0.0448374599218368,0.0
0.2384275197982788,0.0
36.821533203125,27.027368545532227
0.0,0.0
0.0855100154876709,0.0
35.530311584472656,39.44431686401367
0.2166638821363449,0.0
45.861087799072266,53.4921875
0.2580618858337402,0.0
0.022899255156517,0.0
0.0698992758989334,0.0
0.0,0.0
0.0385073274374008,0.0
0.0,0.0
0.0,0.0
0.0,0.0
52.83165740966797,70.75716400146484
36.50274658203125,39.34264755249024
0.3469825387001037,0.0
0.1258833408355713,0.0
0.0,0.0
0.0,0.0
0.7304360270500183,0.0
21.14715385437012,17.497295379638672
0.0,0.0
0.0,0.0
0.0646235570311546,0.0
21.635730743408203,17.88726806640625
0.0398069471120834,0.0
0.1811405271291732,0.0
28.42789077758789,40.04632568359375
0.0,0.0
0.0,0.0
0.0068419873714447,0.0
0.0,0.0
0.0,0.0
0.0,0.0
0.1060157567262649,0.0
0.1265452057123184,0.0
0.0,0.0
0.0,0.0
0.0,0.0
0.0,0.0
0.0,0.0
0.1303429156541824,0.0
0.1811759024858474,0.0
0.0,0.0
24.4208984375,17.852331161499023
0.1369382441043853,0.0
0.1799069494009018,0.0
0.0070250481367111,0.0
0.0291059464216232,0.0
78.26944732666016,86.5432357788086
0.0,0.0
0.0429052412509918,0.0
0.0,0.0
0.0,0.0
0.0,0.0
45.75715255737305,56.69859313964844
0.0,0.0
41.83308792114258,47.73534393310547
0.055033266544342,0.0
0.0685744881629943,0.0
0.0,0.0
73.65152740478516,81.54336547851562
0.0,0.0
31.262184143066406,32.351959228515625
0.2700040936470032,0.0
0.0212272554636001,0.0
0.0211191177368164,0.0
0.0139662772417068,0.0
0.0,0.0
0.1316135972738266,0.0
0.0,0.0
0.1891375482082367,0.0
0.0490892678499221,0.0
0.1258288919925689,0.0
24.477243423461918,16.290809631347656
0.0,0.0
0.0,0.0
0.1670254915952682,0.0
0.0,0.0
0.0,0.0
0.0,0.0
0.11516635119915,0.0
0.0,0.0
0.0,0.0
0.1602772325277328,0.0
0.4232073426246643,0.0
0.0,0.0
0.0,0.0
0.0,0.0
0.0,0.0
0.240148663520813,0.0
0.0,0.0
0.0,0.0
0.0713623166084289,0.0
40.857948303222656,39.410282135009766
0.0,0.0
0.1776958853006363,0.0
0.0,0.0
0.0,0.0
0.0,0.0
0.0661869794130325,0.0
0.0718656331300735,0.0
60.39817810058594,55.41022491455078
0.0,0.0
0.4110560417175293,0.0
0.1035231500864029,0.0
0.0,0.0
69.7471923828125,72.97710418701172
0.0,0.0
0.0,0.0
0.0370399206876754,0.0
1.7010396718978882,0.3065188825130462
0.0,0.0
0.0065056383609771,0.0
0.0,0.0
20.295509338378903,17.63743019104004
0.1366518437862396,0.0
0.0,0.0
0.1002331152558326,0.0
53.39596176147461,67.46745300292969
0.0,0.0
0.0,0.0
0.0,0.0
0.2305392622947693,0.0
0.0,0.0
0.2310563325881958,0.0
0.0,0.0
0.0486078560352325,0.0
29.323143005371094,39.09383773803711
0.0,0.0
0.0,0.0
0.0,0.0
0.0,0.0
0.0,0.0
0.0,0.0
63.38435745239258,71.75279998779297
0.1537480503320694,0.0
0.3146154880523681,0.0
0.0478177517652511,0.0
0.0,0.0
0.0,0.0
0.164486214518547,0.0
58.91686248779297,62.9083251953125
0.0,0.0
0.2874618768692016,0.0
0.0,0.0
0.0,0.0
0.0189993530511856,0.0
0.0455280840396881,0.0
0.0962004214525222,0.0
0.1229423284530639,0.0
44.57753753662109,42.71825408935547
0.2504864931106567,0.0
0.1329303830862045,0.0
52.55685424804688,72.17662811279297
0.0,0.0
26.17147827148437,24.140077590942383
42.26313781738281,36.49137115478516
0.1337260007858276,0.0
0.0,0.0
0.3711192607879638,0.0
0.0,0.0
0.1404127329587936,0.0
0.0475523173809051,0.0
0.0905838459730148,0.0
0.1103454902768135,0.0
0.0,0.0
0.2373189032077789,0.0
46.37751388549805,50.511844635009766
0.0,0.0
23.91676139831543,18.176166534423828
0.1523447036743164,0.0
0.1553593426942825,0.0
0.1468559354543686,0.0
35.76631164550781,39.25631332397461
0.0,0.0
0.0,0.0
0.2256942242383957,0.0
0.0,0.0
0.0,0.0
0.0949683338403701,0.0
0.0,0.0
0.0519380420446395,0.0
0.1464840918779373,0.0
0.0,0.0
0.0,0.0
0.2784478664398193,0.0
33.39213180541992,22.985671997070312
0.1195242777466774,0.0
29.519954681396484,24.6678409576416
0.7888969779014587,0.0
0.0,0.0
29.35442352294922,27.599395751953125
0.0,0.0
0.0138219147920608,0.0
0.0,0.0
36.16741943359375,39.52596282958984
0.159588947892189,0.0
0.0,0.0
42.01803207397461,23.779932022094727
0.0,0.0
0.0909985154867172,0.0
0.0,0.0
0.0,0.0
0.0,0.0
0.0,0.0
0.034531146287918,0.0
0.0,0.0
0.1899721473455429,0.0
0.0341057330369949,0.0
0.0,0.0
28.91168975830078,21.219898223876957
51.541648864746094,47.562232971191406
0.0229203552007675,0.0
0.0,0.0
0.0485374182462692,0.0
18.884994506835938,17.983776092529297
0.1405583322048187,0.0
0.0,0.0
0.1446268707513809,0.0
0.2772369384765625,0.0
79.91776275634766,83.4651107788086
0.0,0.0
38.69245529174805,38.95623397827149
0.1469304263591766,0.0
0.1673065572977066,0.0
0.0,0.0
76.34098052978516,86.2497329711914
0.0,0.0
0.0,0.0
30.731077194213867,32.07164001464844
0.0608336180448532,0.0
18.83745384216309,17.565017700195312
39.04157638549805,26.397972106933597
0.2250674813985824,0.0
0.1776259690523147,0.0
0.0258273929357528,0.0
0.047524943947792,0.0
43.80000686645508,57.411903381347656
48.47713088989258,46.51333618164063
0.1048696488142013,0.0
0.046990692615509,0.0
0.0,0.0
0.0,0.0
0.0,0.0
0.0,0.0
0.0,0.0
0.0,0.0
0.0,0.0
0.0,0.0
0.1163547337055206,0.0
0.0,0.0
68.88129425048828,77.5997314453125
0.5046391487121582,0.0
0.0,0.0
0.0,0.0
0.1108689904212951,0.0
0.0,0.0
0.0,0.0
0.0,0.0
0.3052392601966858,0.0
0.0,0.0
0.0,0.0
0.4187164306640625,0.0
0.0,0.0
31.582853317260746,21.81968116760254
46.37327575683594,52.97512435913086
0.0706014484167099,0.0
0.1104123443365097,0.0
0.0,0.0
0.0,0.0
0.0,0.0
0.0,1.764854073524475
0.0022632628679275,0.0
23.700403213500977,15.677777290344238
0.2170763164758682,0.0
0.0,0.0
45.762939453125,43.887184143066406
0.1040956825017929,0.0
0.0809588432312011,0.0
0.0030081719160079,0.0
57.16194152832031,77.02064514160156
0.1977215409278869,0.0
0.0,0.0
0.0542413741350173,0.0
0.0,0.0
0.0,0.0
0.1457456052303314,0.0
0.2346136420965194,0.0
43.77514266967773,44.416988372802734
0.2532289624214172,0.0
0.0,0.0
25.510156631469727,26.36263656616211
0.0,0.0
0.0,0.0
0.0,0.0
0.0,0.0
51.0918083190918,44.0362434387207
43.4971809387207,38.24821853637695
0.0,0.0
0.0426761656999588,0.0
0.0,0.0
0.0920417681336402,0.0
0.0853593721985817,0.0
0.0894443392753601,0.0
50.91809844970703,57.51450729370117
0.0,0.0
0.1242460161447525,0.0
28.160459518432617,21.69219970703125
0.0,0.0
0.2535704374313354,0.0
0.0020492821931838,0.0
0.3288146257400512,0.0
0.0,0.0
0.0,0.0
0.0250550359487533,0.0
0.0803546905517578,0.0
0.0,0.0
0.0,0.0
0.0460219532251358,0.0
0.0,0.0
0.2500345706939697,0.0
0.5373436808586121,0.0
0.1923008114099502,0.0
0.0,0.0
0.0581037253141403,0.0
0.0,0.0
0.0779329687356948,0.0
0.0493233203887939,0.0
52.66145706176758,41.21419525146485
0.0932731181383133,0.0
0.1210387200117111,0.0
0.0,0.0
0.1396199315786361,0.0
0.0,0.0
0.0,0.0
0.2462106794118881,0.0
0.0230291336774826,0.0
0.0,0.0
0.0290010422468185,0.0
0.2236557453870773,0.0
0.0388327687978744,0.0
0.0,0.0
0.0,0.0
61.54518127441406,68.19679260253906
18.89539337158203,17.034481048583984
0.0,0.0
0.0,0.0
26.181087493896484,18.844572067260746
0.0276958793401718,0.0
0.0,0.0
26.8784122467041,22.376728057861328
0.0,0.0
0.0,0.0
0.1802894324064254,0.0
0.1664982438087463,0.0
0.0,0.0
0.2654914259910583,0.0
0.1709326803684234,0.0
38.45774841308594,44.993465423583984
0.0226560682058334,0.0
0.0,0.0
28.31019592285156,21.387287139892575
0.0073486268520355,0.0
0.0,0.0
0.0451362133026123,0.0
0.0,0.0
0.1880962401628494,0.0
0.0,0.0
0.0,0.0
0.0,0.0
35.45348358154297,27.503150939941406
33.57841110229492,37.15592575073242
0.0108431428670883,0.0
0.3264790773391723,0.0
0.087804801762104,0.0
0.1938647776842117,0.0
0.0067809969186782,0.0
0.1689645946025848,0.0
0.0,0.0
55.71241760253906,44.33811569213867
0.0427245944738388,0.0
0.0,0.0
19.834367752075195,18.643474578857425
0.0333249419927597,0.0
0.0,0.0
0.0,0.0
0.0,0.0
19.33167839050293,17.099042892456055
0.0365078896284103,0.0
0.0,0.0
0.0424170047044754,0.0
0.0,0.0
0.0,0.0
0.0616490095853805,0.0
0.0,0.0
0.0696117430925369,0.0
55.26736068725586,66.31359100341797
0.0,0.0
0.0,0.0
0.0,0.0
76.01642608642578,81.47335052490234
0.0,0.0
0.0564731210470199,0.0
0.0,0.0
0.0,0.0
78.01431274414062,87.73365783691406
0.0,0.0
0.0,0.0
0.4853481650352478,0.0
0.0977513939142227,0.0
0.0,0.0
0.0,0.0
0.0,0.0
0.0413060337305069,0.0
25.45968246459961,20.53310203552246
35.983154296875,41.51991271972656
0.1125286668539047,0.0
0.0,0.0
37.77545928955078,29.35817146301269
0.0,0.0
35.382572174072266,31.345775604248047
0.2250375151634216,0.0
0.0,0.0
0.0,0.0
27.709400177001957,17.833707809448242
43.89833068847656,46.38031768798828
21.61250305175781,17.29071044921875
0.0,0.0
0.0,0.0
0.1097689419984817,0.0
0.0083671808242797,0.0
0.0,0.0
0.0009717345237731,0.0
0.7563502192497253,0.0
29.603702545166016,30.616708755493164
0.0400563329458236,0.0
71.45201110839844,85.43631744384766
0.3174118399620056,0.0
71.54917907714844,74.89588165283203
54.50983810424805,46.06277847290039
0.0,0.1123545467853546
0.0,0.0
0.0,0.0
33.903160095214844,26.45540809631348
0.0,0.0
0.2404563575983047,0.0
0.1268165409564972,0.0
0.2250961512327194,0.0
29.8450984954834,27.355857849121094
0.293298602104187,0.0
0.0,0.0
0.156730368733406,0.0
0.2739707827568054,0.0
0.0,0.0
0.0,0.0
0.0,0.0
0.0674151182174682,0.0
38.1540641784668,24.134052276611328
0.0,0.0
0.1543275862932205,0.0
0.0,0.0
0.1607176959514618,0.0
0.0,0.0
0.1395497173070907,0.0
49.48841857910156,30.93545913696289
0.1524644643068313,0.0
0.0,0.0
0.2213571965694427,0.0
0.0419584065675735,0.0
79.03858184814453,78.88606262207031
0.2041711956262588,0.0
0.0,0.0
33.51931381225586,30.38853645324707
0.3823474645614624,0.0
0.0,0.0
0.0,0.0
0.76580411195755,0.0
0.0,0.0
56.52522277832031,47.97660827636719
0.0,0.0
0.024551436305046,0.0
0.2448344677686691,0.0
0.1308754533529281,0.0
0.0,0.0
34.70674133300781,32.722145080566406
0.0,0.0
0.2689119577407837,0.0
0.0,0.0
0.0744265466928482,0.0
25.91259002685547,25.00386047363281
0.0598438829183578,0.0
0.0,0.0
0.0,0.0
0.2168017774820327,0.0
0.0870348364114761,0.0
0.0,0.0
0.1446630954742431,0.0
0.0354834049940109,0.0
0.1571429222822189,0.0
0.0594223290681839,0.0
0.925000250339508,0.0
0.006107360124588,0.0
0.0,0.0
0.3990694880485534,0.0
0.1150441616773605,0.0
0.0,0.0
0.4123917520046234,0.0
0.1698593944311142,0.0
27.49540328979492,20.15449523925781
36.68458557128906,25.257755279541016
0.0,0.0
0.0,0.0
0.1473258882761001,0.0
77.03228759765625,85.21754455566406
0.0,0.0
0.0,0.0
0.0,0.0
0.0331864356994628,0.0
0.0,0.0
0.0,0.0
0.0401259958744049,0.0
0.0609596073627471,0.0
26.35115623474121,22.48502349853516
0.0,0.0
0.0,0.0
0.038027599453926,0.0
0.1185896843671798,0.0
0.0670539811253547,0.0
27.22672271728516,27.0445613861084
0.8249242901802063,0.0
0.1734644919633865,0.0
0.0,0.0
0.0934541374444961,0.3636407852172851
40.88643264770508,43.9692268371582
0.3853769302368164,0.0
0.0,0.0
0.0,0.0
0.0,0.0
0.0562185049057006,0.0
0.0,0.0
0.1490468680858612,0.0
44.29262924194336,40.050437927246094
0.0522071570158004,0.0
0.0,0.0
42.94990921020508,39.22867965698242
31.009126663208008,18.320253372192383
0.1724190413951873,0.0
0.1002084836363792,0.0
0.0254874676465988,0.0
0.0,0.0
0.3050346076488495,0.0
0.0033600181341171,0.0
39.10242462158203,41.08521270751953
0.1079069823026657,0.0
0.0379349738359451,0.0
19.619285583496094,16.992551803588867
61.08484649658203,79.2114486694336
0.0,0.0
0.0,0.0
0.0,0.0
0.0,0.0
0.0128142982721328,0.0
0.0614453107118606,0.0
0.0,0.0
57.12769317626953,59.12956619262695
0.0,0.0
26.808521270751957,24.97772026062012
0.1396933495998382,0.0
0.083462581038475,0.0
0.1678637713193893,0.0
0.1618048399686813,0.0
0.0,0.0
22.262941360473636,18.889379501342773
0.0,0.0
0.2009700685739517,0.0
0.0852537006139755,0.0
0.0,0.0
0.1403043717145919,0.0
0.0,0.0
0.0976650863885879,0.0
0.0,0.0
45.22224426269531,42.713165283203125
0.0,0.0
0.0,0.0
0.1005838960409164,0.0
66.40070343017578,59.9897575378418
0.0,0.0
30.534975051879883,28.380590438842773
0.0334187746047973,0.0
0.0781146138906478,0.0
0.0,0.0
0.0482874661684036,0.0
0.0,0.0
0.1117790713906288,0.0
22.34241485595703,18.37698554992676
0.0,0.0
0.0,0.0
0.0,0.0
0.0,0.0
0.0,0.0
0.2451620697975158,0.0
0.0,0.0
0.0972896218299865,0.0
0.1963982135057449,0.0
77.3265380859375,87.88875579833984
0.2261903285980224,0.0
0.5054859519004822,0.0
20.553653717041016,17.25398826599121
0.0004501193761825,0.0
0.0,0.0
46.95697021484375,46.28837966918945
34.549198150634766,35.73297500610352
26.580509185791016,23.283891677856445
62.254127502441406,72.7445297241211
43.67294692993164,42.92179107666016
0.0,0.0
0.0439773648977279,0.0
0.0,0.0
0.0,0.0
0.0,0.0
0.1705093383789062,0.0
0.0,0.0
0.0,0.0
0.0,0.0
77.1190185546875,89.03520965576172
0.0841649770736694,0.0
0.0,0.0
0.0,0.0
0.0,0.0
0.0177785009145736,0.0
0.1248764842748642,0.0
61.848026275634766,65.11668395996094
0.0,0.0
31.988988876342773,23.326833724975582
0.0,0.0
0.0,0.0
0.0,0.0
0.0,0.0
55.21624374389648,45.93423080444336
55.494117736816406,65.67322540283203
0.1750644147396087,0.0
0.0,0.0
29.46395874023437,17.946653366088867
0.0,0.0
0.0,0.0
0.1751030087471008,0.0
0.0,0.0
0.2273531705141067,0.0
0.1340321749448776,0.0
0.0,0.0
0.0,0.0
0.1856478899717331,0.0
32.8304443359375,37.01184844970703
0.0581671446561813,0.0
70.06122589111328,76.67015075683594
0.205660805106163,0.0
0.0,0.6694818139076233
0.0016163140535354,0.0
0.0,0.0
35.46775436401367,28.41638946533203
0.0138252228498458,0.0
0.055889680981636,0.0
37.25643539428711,38.35953521728516
0.0,0.0
0.1117020547389984,0.0
0.313995212316513,0.0
28.779788970947266,21.3800106048584
0.0,0.0
34.4381217956543,24.55098533630371
0.0,0.0
0.0,0.2237546741962433
0.0796547830104827,0.0
0.0,0.0
0.0573364198207855,0.0
0.0205139815807342,0.0
0.0839787274599075,0.0
0.0,0.0
28.89771842956543,21.71128845214844
53.13041305541992,36.16731643676758
0.0362547934055328,0.0
52.170196533203125,37.30467987060547
0.0,0.0
0.1364202350378036,0.0
0.02549509704113,0.0
0.0,0.0
0.026211991906166,0.0
0.0579766780138015,0.0
0.1893620043992996,0.0
39.13007354736328,25.845434188842773
0.0,0.0
0.0,0.0
0.0227465480566024,0.0
0.0633982717990875,0.0
0.1007711440324783,0.0
0.0986040607094764,0.0
0.1413048952817917,0.0
0.0,0.0
0.0,0.0
0.2869300842285156,0.0
0.1303297132253646,0.0
66.79472351074219,70.9115982055664
51.81436538696289,57.3924560546875
0.0,0.0
0.0,0.0
0.0429905802011489,0.0
73.4604721069336,86.2320556640625
0.0,0.0
0.0574239790439605,0.0
0.0,0.0
0.0933524519205093,0.0
24.176055908203125,26.338916778564453
0.0,0.0
0.0,0.0
0.0,0.0
0.0,0.0
0.0525224357843399,0.0
0.0193050354719162,0.0
0.0055430978536605,0.0
0.1231475919485092,0.0
0.0246067196130752,0.0
0.0,0.0
0.1627519279718399,0.0
0.0855021104216575,0.0
0.0,0.0
0.1239614114165306,0.0
0.0,0.0
0.0,0.0
0.0,1.206227421760559
63.739559173583984,62.5308952331543
0.0,0.0
30.616191864013672,30.62928771972656
30.832927703857425,26.90970993041992
0.1747533828020095,0.0
0.0,0.0
0.1210964769124984,0.0
0.1605687439441681,0.0
0.0575823336839675,0.0
0.0336724072694778,0.0
0.3819148242473602,0.0
0.307940661907196,0.0
0.0,0.0
68.56069946289062,78.35897827148438
0.013863667845726,0.0
0.0,0.0
0.1684772074222564,0.0
0.0175444334745407,0.0
0.0,0.0
0.0,0.0
0.0711634010076522,0.0
0.0,0.0
0.0,0.0
40.3294792175293,38.104103088378906
0.0,0.0
0.0,0.0
0.0,0.0
0.1334875673055648,0.0
0.0,0.0
0.0,0.0
0.0,0.0
52.21364212036133,59.35260009765625
0.0,0.0
0.297561377286911,0.0
0.1096066609025001,0.0
0.0,0.0
33.06264877319336,23.069658279418945
0.0097808688879013,0.0
20.773494720458984,17.8311824798584
0.0,0.0
0.0,0.0
0.0,0.0
30.37299156188965,23.03121566772461
55.01066589355469,66.91720581054688
62.46384048461914,82.37725830078125
0.0,0.0
0.0,0.0
0.0,0.0
0.0,0.0
0.0,0.0
0.0,0.0
21.4127254486084,16.597997665405273
0.0,0.0
0.0,0.0
0.0,0.0
0.0372002869844436,0.0
0.0,0.0
0.0,0.0
23.247299194335938,20.96965217590332
0.2861859202384949,0.0
0.0,0.0
0.040211334824562,0.0
0.0976767688989639,0.0
0.0,0.0
0.049104705452919,0.0
0.1634963303804397,0.0
0.0484441965818405,0.0
0.1026443988084793,0.0
0.1025408953428268,0.0
42.94856643676758,43.0395736694336
72.73713684082031,79.97705078125
45.70338821411133,45.52421569824219
0.0,0.0
0.0708003938198089,0.0
0.1089168339967727,0.0
0.4129567742347717,0.0
0.0,0.0
0.0,0.0
0.0,0.0
0.0,0.0
0.0,0.0
35.142581939697266,26.49928474426269
0.1777375936508178,0.0
80.53345489501953,86.85956573486328
0.0,0.0
0.3998657464981079,0.0
33.10990905761719,33.85309600830078
0.0,0.0
0.4537261128425598,0.0
25.608190536499023,21.18631172180176
0.0,0.0
0.1507225036621093,0.0
39.070068359375,31.82119369506836
14.067182540893556,16.877599716186523
0.3372805118560791,0.0
0.0,0.0
0.0,0.0
0.0,0.0
0.0,0.0
70.73807525634766,86.01197052001953
0.0,0.0
0.0,0.0
20.297399520874023,17.381189346313477
0.0,0.0
0.089795596897602,0.0
0.0,0.0
0.0,0.0
0.0,0.0
0.0,0.0
0.0,0.0
0.0,0.0
24.591575622558597,23.990537643432617
0.0,0.0
0.0,0.0
0.0,0.0
0.0,0.0
0.0,0.0
0.0,0.0
0.1506527513265609,0.0
0.0,0.0
0.0,0.0
46.16981887817383,45.76226806640625
0.0260808169841766,0.0
0.0,0.0
0.0434441417455673,0.0
0.0,0.0
0.0,0.0
0.2062862366437912,0.0
0.0,0.0
0.005768746137619,0.0
0.0,0.0
0.1450138986110687,0.0
0.0733599513769149,0.0
0.0,0.0
0.0,0.0
0.0,0.0
0.0,0.0
0.0,0.0
0.0612058788537979,0.0
0.3774295151233673,0.0
0.0,0.0
0.0,0.0
0.0,0.0
0.4452777504920959,0.0
0.1596704274415969,0.0
26.98016166687012,22.17394256591797
0.2344726175069809,0.0
0.4826340079307556,0.0
0.0,0.0
0.0144283026456832,0.0
0.0,0.0
